date,Close,High,Low,Open,Volume
2021-12-31 00:00:00+00:00,117.0742545795,118.0492361249,111.45377273,111.4920073004,2207442
2022-01-07 00:00:00+00:00,118.2212916917,118.6609892513,114.0250475897,117.0360200091,1506830
2022-01-14 00:00:00+00:00,115.8316310414,118.4220231863,114.5794488606,117.5235107818,1112760
2022-01-21 00:00:00+00:00,111.2434825928,116.9117576553,110.7177572497,115.2867884131,1134693
2022-01-28 00:00:00+00:00,109.9721831268,113.0787419722,107.4869360505,110.4883498273,2928756
2022-02-04 00:00:00+00:00,110.5319071404,113.6809364561,108.9975409125,109.9339485564,1474309
2022-02-11 00:00:00+00:00,109.0454898571,112.8286615877,108.2399475875,110.8771395417,1261004
2022-02-18 00:00:00+00:00,113.5814600183,116.5351150069,107.8251892165,109.0454898571,1625855
2022-02-25 00:00:00+00:00,116.0076766161,116.6118333183,110.0140585385,113.6389987518,1367304
2022-03-04 00:00:00+00:00,115.25967308,117.8968650342,112.5937117591,114.5692082775,1479931
2022-03-11 00:00:00+00:00,107.6933296188,115.4131097028,105.5260373219,114.4157716547,1405141
2022-03-18 00:00:00+00:00,112.9101747936,114.2239758762,108.1440496983,108.1919986429,1077644
2022-03-25 00:00:00+00:00,112.4306853474,115.518597381,109.3187988415,112.9005850047,1216977
2022-04-01 00:00:00+00:00,114.1376677759,114.9134816998,110.2921624173,112.6128913369,1120584
2022-04-08 00:00:00+00:00,116.4296273288,117.2159900206,110.4743684068,113.8499741082,1343095
2022-04-15 00:00:00+00:00,112.5841219702,117.283118543,111.6203481833,116.1611132389,678912
2022-04-22 00:00:00+00:00,111.8361184341,115.4131097028,108.8536940786,111.9895550569,857942
2022-04-29 00:00:00+00:00,110.4979639012,112.0575219444,105.4171553199,111.721040967,1835676
2022-05-06 00:00:00+00:00,107.0337762321,112.5572310157,105.6192329339,111.0657057692,1540091
2022-05-13 00:00:00+00:00,103.4541156407,106.9086805663,99.3548268989,105.8501787785,1602594
2022-05-20 00:00:00+00:00,95.9579984345,106.225465776,93.5234443226,103.2424152831,1992887
2022-05-27 00:00:00+00:00,104.7820542472,104.8205452213,95.9050733451,97.1415958881,1972275
2022-06-03 00:00:00+00:00,104.6954495555,105.8774111427,101.6450398579,104.0026120216,905221
2022-06-10 00:00:00+00:00,101.2312618864,106.6248096323,99.2393539766,105.455646294,958542
2022-06-17 00:00:00+00:00,93.8217493719,99.3355814119,90.4826573686,98.989162645,1842255
2022-06-24 00:00:00+00:00,98.7485940568,98.7774622874,92.6069742292,94.2836410611,943681
2022-07-01 00:00:00+00:00,100.5480470961,100.7212564795,97.516305521,98.7485940568,1154511
2022-07-08 00:00:00+00:00,96.2370579967,99.6435092047,96.2274352532,99.4414315906,945831
2022-07-15 00:00:00+00:00,96.2370579967,98.0076428054,94.630059828,96.0446031262,1068811
2022-07-22 00:00:00+00:00,99.6916229223,100.0608475914,94.0142042424,96.7759316341,1627616
2022-07-29 00:00:00+00:00,104.0741889963,105.7450162695,98.3953078595,99.8070958446,1432943
2022-08-05 00:00:00+00:00,102.0363592006,105.0979328747,101.4955133781,102.6641266732,1214622
2022-08-12 00:00:00+00:00,107.2806320871,107.4834492706,102.3801826164,102.4999413342,993750
2022-08-19 00:00:00+00:00,106.3920996644,108.5796278574,105.8029640362,106.8943136425,957866
2022-08-26 00:00:00+00:00,100.8387720221,105.8029640362,100.6069809553,105.4359615138,824161
2022-09-02 00:00:00+00:00,97.9606996093,101.1768006612,97.27498437,100.413821733,894116
2022-09-09 00:00:00+00:00,102.7703642455,103.1663406513,96.3961099083,97.7965142703,658600
2022-09-16 00:00:00+00:00,99.1293129044,104.5667450133,97.9317257259,103.5140272515,1679249
2022-09-23 00:00:00+00:00,94.7252826351,100.9739834778,93.6146171066,98.3663339762,999375
2022-09-30 00:00:00+00:00,91.7796044944,95.4206558355,91.6250771166,94.1651208903,1517472
2022-10-07 00:00:00+00:00,90.7655185771,96.4154258306,90.3985160547,93.1606929341,1059463
2022-10-14 00:00:00+00:00,91.8278943,92.6391630338,87.1437831583,91.1614949829,1250644
2022-10-21 00:00:00+00:00,94.1844368125,96.5602952473,91.2967064386,92.735742645,1347657
2022-10-28 00:00:00+00:00,98.0450658569,100.9390095094,93.0376223173,94.551439335,1384788
2022-11-04 00:00:00+00:00,95.7570568049,97.5312333155,89.7267956596,96.9107562845,1429998
2022-11-11 00:00:00+00:00,101.0698913831,101.869725056,94.9911554697,96.1642448565,1057689
2022-11-18 00:00:00+00:00,102.8052880793,103.7456985795,100.4494143521,100.4494143521,1026122
2022-11-25 00:00:00+00:00,102.6792536824,103.5227146464,101.7291482286,102.863457801,794123
2022-12-02 00:00:00+00:00,104.7539737549,105.2387214354,98.4037791404,101.8357927183,1011774
2022-12-09 00:00:00+00:00,104.7636687085,105.6556044406,102.1557261875,103.6002742753,1061909
2022-12-16 00:00:00+00:00,104.1625815847,107.7206295595,103.1446114557,105.1514668529,1610551
2022-12-23 00:00:00+00:00,106.6541846624,107.4200859976,102.5532192855,104.0462421414,1226830
2022-12-30 00:00:00+00:00,106.6250998016,108.4962258483,105.6866282922,106.5475401727,565487
2023-01-06 00:00:00+00:00,110.5806408744,110.9102692972,105.7913337912,107.2067970182,948012
2023-01-13 00:00:00+00:00,110.493386292,112.1512233593,108.9674975433,111.1332532302,822908
2023-01-20 00:00:00+00:00,109.8341294465,111.1041683694,106.964423178,110.6969803178,681575
2023-01-27 00:00:00+00:00,109.2912120443,110.2607074053,107.117603445,109.746874864,862503
2023-02-03 00:00:00+00:00,112.2623083679,115.1024222167,108.0599529359,108.3023267761,1577680
2023-02-10 00:00:00+00:00,106.2222032304,112.3401197062,104.9334529394,111.4258364809,906363
2023-02-17 00:00:00+00:00,113.4975633638,117.9619889002,105.2203822495,106.407005159,1425514
2023-02-24 00:00:00+00:00,111.630091244,113.3127614353,109.8987889663,113.3127614353,1133056
2023-03-03 00:00:00+00:00,116.9601679192,116.9601679192,112.352374992,112.6708178941,1101936
2023-03-10 00:00:00+00:00,109.4805530228,116.9018094155,109.20335013,116.8434509118,1185698
2023-03-17 00:00:00+00:00,107.7297979105,112.1066856912,106.9419581099,108.4009207035,1366037
2023-03-24 00:00:00+00:00,109.8793361317,111.095138293,107.010043031,108.7413453087,770080
2023-03-31 00:00:00+00:00,114.9565259574,115.0343372957,110.0446852256,110.3559305789,852944
2023-04-07 00:00:00+00:00,115.8027242617,116.0750639458,113.5851011194,114.7036391078,743166
2023-04-14 00:00:00+00:00,115.9388941037,116.7753659907,114.6647334387,115.1413278859,774987
2023-04-21 00:00:00+00:00,117.2908661071,117.7577341371,114.8203561153,116.2306866225,1295267
2023-04-28 00:00:00+00:00,115.2677713107,118.0980614781,111.4939214019,117.553479374,1592244
2023-05-05 00:00:00+00:00,118.7456509652,119.1486118096,112.5638273039,116.1431488668,1300326
2023-05-12 00:00:00+00:00,117.8577418248,119.3701145364,115.6184544874,118.901766858,985510
2023-05-19 00:00:00+00:00,116.1990104638,118.1336766654,114.6085798058,117.6625969588,748605
2023-05-26 00:00:00+00:00,111.3886895167,116.6185719257,110.2031844557,115.7892062452,1089782
2023-06-02 00:00:00+00:00,111.3886895167,111.9594882498,108.9786504215,111.4374757332,1020115
2023-06-09 00:00:00+00:00,112.0229103312,113.1742650407,110.1363473391,111.0374287579,1333861
2023-06-16 00:00:00+00:00,114.3061052635,114.3646487233,111.5252909229,111.8960661683,2256736
2023-06-23 00:00:00+00:00,110.0909761578,114.1130094186,109.3494256669,114.0426596944,1247169
2023-06-30 00:00:00+00:00,113.0474208778,113.4572250964,109.7494726423,110.3153927537,1071191
2023-07-07 00:00:00+00:00,111.0276715146,114.1792611006,108.9152283401,112.6083449293,1080927
2023-07-14 00:00:00+00:00,115.4769744596,115.9550793813,110.2666065372,110.5593238362,1136078
2023-07-21 00:00:00+00:00,116.9308037113,117.4479376062,114.3158625068,115.5257606761,1030706
2023-07-28 00:00:00+00:00,121.1879780352,124.3307588519,115.8282352184,117.1064340907,1641777
2023-08-04 00:00:00+00:00,118.1137313796,121.3348369519,117.4675521463,120.9334225797,1753452
2023-08-11 00:00:00+00:00,120.0424784852,120.9774802547,117.2032060963,118.2018467296,1140394
2023-08-18 00:00:00+00:00,120.7082389074,120.8355166352,118.8382353685,119.4746240074,1315506
2023-08-25 00:00:00+00:00,124.8692415464,125.0014145714,119.7487606519,120.5711705852,1864774
2023-09-01 00:00:00+00:00,129.7743293631,130.9883630743,124.9573568964,124.9573568964,1660943
2023-09-08 00:00:00+00:00,122.6859389852,129.2162654798,122.4999176908,128.9225476464,1183765
2023-09-15 00:00:00+00:00,123.2929558408,125.2510747297,122.4901270963,124.3307588519,1678092
2023-09-22 00:00:00+00:00,120.1110126463,123.7139514019,119.552948763,123.7139514019,1277027
2023-09-29 00:00:00+00:00,122.4215929352,124.1741093408,118.9276234958,119.4354616296,1718359
2023-10-06 00:00:00+00:00,123.7629043741,124.0370410186,119.7683418407,121.9222726186,1647018
2023-10-13 00:00:00+00:00,123.3321182186,125.916835152,122.4411741241,123.1852593019,1324793
2023-10-20 00:00:00+00:00,119.6606453019,125.6524891019,119.376718063,124.6930108464,1767401
2023-10-27 00:00:00+00:00,119.0301108576,123.1755847192,118.2344156377,119.1711155796,2062451
2023-11-03 00:00:00+00:00,123.1362911281,123.7492711494,118.7157621287,119.7668656908,1728795
2023-11-10 00:00:00+00:00,123.4997568459,123.5685206303,121.7020750528,123.0577039459,868550
2023-11-17 00:00:00+00:00,125.6707277545,126.8004184988,122.173598146,123.1755847192,1218675
2023-11-24 00:00:00+00:00,126.2601316211,126.9182992721,124.197218088,125.1992046612,615259
2023-12-01 00:00:00+00:00,125.8377255167,126.26504332,122.6058276482,125.5626703789,1436493
2023-12-08 00:00:00+00:00,125.0715004901,126.6039505432,123.4015228681,125.1992046612,1069057
2023-12-15 00:00:00+00:00,123.7551651881,127.713994492,123.7453417903,125.0125601035,2099178
2023-12-22 00:00:00+00:00,124.0400437236,125.8622840111,122.6451212393,124.4722732257,1980138
2023-12-29 00:00:00+00:00,121.4368433128,124.6294475902,121.3779029262,123.9123395525,1213302
2024-01-05 00:00:00+00:00,122.0066003838,125.0125601035,120.1337695978,120.4446801374,1621213
2024-01-12 00:00:00+00:00,124.197218088,125.7100213456,120.2089185908,121.8788962128,1437078
2024-01-19 00:00:00+00:00,128.4900429163,129.1383871696,123.2934654926,123.6569312103,1456478
2024-01-26 00:00:00+00:00,129.3741487162,130.2484311183,128.0283432208,128.5882768941,1330490
2024-02-02 00:00:00+00:00,128.2058466032,130.8369735089,126.8161780031,128.7356278607,1597284
2024-02-09 00:00:00+00:00,136.9368519907,137.1832121878,126.1856929865,127.2499690382,2353904
2024-02-16 00:00:00+00:00,135.4981084392,138.4248675815,132.6107669285,137.1339401484,2027442
2024-02-23 00:00:00+00:00,139.3019098834,140.3464771194,134.9561160055,135.1433497553,1135386
2024-03-01 00:00:00+00:00,138.2474882396,140.1099713301,137.3014650825,139.4398715938,1035424
2024-03-08 00:00:00+00:00,141.0067224478,143.0219488606,138.5135572525,138.641664555,1069797
2024-03-15 00:00:00+00:00,138.9471511995,141.2925002765,137.7066783347,140.7110902112,1640175
2024-03-22 00:00:00+00:00,139.5285612648,140.376040343,136.8580167276,138.8781703443,1304551
2024-03-29 00:00:00+00:00,141.7950750787,143.2360851439,139.1146761336,139.1442393572,1096581
2024-04-05 00:00:00+00:00,139.6665229752,141.6965309998,137.8336031083,141.6965309998,1344244
2024-04-12 00:00:00+00:00,135.2024762026,140.3070594878,133.9805296247,139.6073965279,1320344
2024-04-19 00:00:00+00:00,137.3113194903,137.8828751478,135.3601467288,136.5919477146,1689767
2024-04-26 00:00:00+00:00,141.6568395761,146.7714292977,137.2226298194,137.518262056,2459107
2024-05-03 00:00:00+00:00,145.0962158527,146.2920909374,142.378317933,143.2085122066,2281211
2024-05-10 00:00:00+00:00,146.7566044,149.9587823127,145.4421301334,146.0351260431,1362057
2024-05-17 00:00:00+00:00,145.9461766567,147.7350476511,144.7157101439,146.7961374607,921214
2024-05-24 00:00:00+00:00,146.3612737935,147.2112345975,145.3235309514,145.8671105354,1061074
2024-05-31 00:00:00+00:00,145.965943187,146.1043088993,142.8280064979,145.8967603309,1235079
2024-06-07 00:00:00+00:00,143.8509244422,146.7664876652,143.7026754647,146.7664876652,1160056
2024-06-14 00:00:00+00:00,143.0602632292,144.8194844281,142.0002830405,143.1393293505,868760
2024-06-21 00:00:00+00:00,145.1357489133,145.965943187,142.8823644562,143.1788624111,1167656
2024-06-28 00:00:00+00:00,139.1662567551,146.4996395058,138.4546616634,145.5014297243,1382205
2024-07-05 00:00:00+00:00,139.2552061416,139.828435521,136.1518608805,139.7296028694,916057
2024-07-12 00:00:00+00:00,142.9021309866,143.7916248512,138.1186306479,139.9964510288,1138112
2024-07-19 00:00:00+00:00,144.2363717835,145.5310795198,141.469057538,143.0701464943,1426359
2024-07-26 00:00:00+00:00,145.4089647203,149.9994700159,140.0153688654,144.2857881093,1841694
2024-08-02 00:00:00+00:00,144.4472389888,148.2642986729,142.5237875258,145.3296471342,1631312
2024-08-09 00:00:00+00:00,142.7220814911,146.003846616,138.2902113677,142.2065171814,1810066
2024-08-16 00:00:00+00:00,145.4684529098,146.0831642021,141.5521470961,142.7419108876,1077263
2024-08-23 00:00:00+00:00,149.1567206636,149.2459529479,144.6752770488,145.0718649793,1267565
2024-08-30 00:00:00+00:00,151.8832626858,152.1311301424,148.5618387678,149.3946734219,1058307
2024-09-06 00:00:00+00:00,151.0801721265,151.8148512678,148.3238860095,150.8124752734,1052652
2024-09-13 00:00:00+00:00,150.9810251439,151.7543716084,147.362160278,151.2685513935,916636
2024-09-20 00:00:00+00:00,154.5800606132,157.4503657603,150.5745225151,151.7345422119,1732732
2024-09-27 00:00:00+00:00,158.5261105218,160.1719504334,153.4200409165,154.8378427681,1572012
2024-10-04 00:00:00+00:00,159.2102247019,160.0926328473,155.2988762373,157.931228626,1386359
2024-10-11 00:00:00+00:00,160.1719504334,160.5358198596,155.7599097065,158.0303756086,944770
2024-10-18 00:00:00+00:00,167.1915568034,168.2078133753,162.0656578016,163.5826066357,1606710
2024-10-25 00:00:00+00:00,167.9216518477,168.8511808541,163.404142067,167.0329216311,1830791
2024-11-01 00:00:00+00:00,168.4187261827,170.4070235227,166.6392000634,168.905859031,1624547
2024-11-08 00:00:00+00:00,174.7315702371,176.7944287274,166.7584979038,168.6374388901,1383575
2024-11-15 00:00:00+00:00,165.5158120663,176.988287718,165.1976844919,175.2882934923,1355945
2024-11-22 00:00:00+00:00,170.5064383897,171.0631616449,163.3684509392,165.4163971993,1340516
2024-11-29 00:00:00+00:00,171.9479539612,173.0040380933,170.1584863552,171.0432786715,694951
2024-12-06 00:00:00+00:00,170.1485448685,172.4350868095,169.5321726931,171.9678369346,958558
2024-12-13 00:00:00+00:00,169.204103632,173.0812834449,167.2058648053,170.5561458232,1338870
2024-12-20 00:00:00+00:00,157.2544366187,169.9277444489,156.5490881374,169.1444547118,2351594
2024-12-27 00:00:00+00:00,157.2246121586,158.6959521902,156.0415752413,156.250346462,605068
2025-01-03 00:00:00+00:00,154.5901181832,157.3240270256,151.9755071811,156.0813411881,1028801
2025-01-10 00:00:00+00:00,152.5521134097,155.1468414384,150.553874583,153.0988951782,1309665
2025-01-17 00:00:00+00:00,155.1766658985,157.0257824246,152.0351561013,152.0351561013,1330522
2025-01-24 00:00:00+00:00,157.3737344591,159.8093987006,155.8029795606,155.8029795606,1030259
2025-01-31 00:00:00+00:00,156.2304634886,159.4117392326,155.6637987468,157.3240270256,1895443
2025-02-07 00:00:00+00:00,142.7467921737,159.3563853964,141.610241377,153.6755014068,2597670
2025-02-14 00:00:00+00:00,144.3519209305,144.8703476098,139.5066254286,143.8235245075,2601523
2025-02-21 00:00:00+00:00,145.8972312244,147.0437517649,143.4596288577,144.3519209305,1555559
2025-02-28 00:00:00+00:00,146.3059907214,148.7286384724,143.9232219458,145.7377153231,2037124
2025-03-07 00:00:00+00:00,152.3177462516,152.8959913938,144.7008619646,146.5253250857,2281268
2025-03-14 00:00:00+00:00,146.216263027,153.534054999,143.3250373159,151.6098944396,1456600
2025-03-21 00:00:00+00:00,144.381830162,147.5522087003,141.9292731796,146.0667168695,1659482
2025-03-28 00:00:00+00:00,146.4854461104,149.5461574665,144.4715578565,145.3090163383,1971893
2025-04-04 00:00:00+00:00,139.7558690244,150.6727385195,139.6162926108,146.1365050763,1744573
2025-04-11 00:00:00+00:00,143.67397835,144.2721629799,130.45409803,135.9274873933,2107626
2025-04-18 00:00:00+00:00,143.3948255228,146.096626101,140.2842654475,145.3588650575,1198264
2025-04-25 00:00:00+00:00,148.6090015464,152.5369809184,140.6730854569,142.8664290997,1691405
2025-05-02 00:00:00+00:00,152.0,153.0,146.7645989377,149.3467625899,2028277
2025-05-09 00:00:00+00:00,153.32,154.575,149.415,151.43,1432068
