date,Close,High,Low,Open,Volume
2022-01-03 00:00:00+00:00,115.4875199077,117.5713039948,114.0250475897,117.0360200091,234856
2022-01-04 00:00:00+00:00,116.0228038934,117.494834854,114.6628958105,115.6595754746,337335
2022-01-05 00:00:00+00:00,117.6286558504,118.6609892513,115.888982897,115.888982897,367631
2022-01-06 00:00:00+00:00,117.1411650777,118.5247785943,116.6249983773,118.0874706953,231889
2022-01-07 00:00:00+00:00,118.2212916917,118.3264367603,116.5867638069,117.303662002,335119
2022-01-10 00:00:00+00:00,116.6632329477,118.4220231863,116.3095631714,117.5235107818,398428
2022-01-11 00:00:00+00:00,117.1124891499,117.5474073883,115.4014921243,116.8830817275,135493
2022-01-12 00:00:00+00:00,115.9463347526,117.5673849513,115.2963470557,116.9213162979,206649
2022-01-13 00:00:00+00:00,116.3000045288,116.9308749405,115.0573809907,116.3000045288,193217
2022-01-14 00:00:00+00:00,115.8316310414,116.127948962,114.5794488606,115.9272174674,178973
2022-01-18 00:00:00+00:00,115.0573809907,116.0419211786,113.5853500301,115.2867884131,232533
2022-01-19 00:00:00+00:00,116.0610384638,116.5198533087,115.1816433445,115.4301680521,252601
2022-01-20 00:00:00+00:00,113.5853500301,116.9117576553,113.5662327449,115.4875199077,297725
2022-01-21 00:00:00+00:00,111.2434825928,114.7706217126,110.7177572497,113.9581370915,351834
2022-01-24 00:00:00+00:00,111.8647943619,112.0750844991,108.9972015815,110.4883498273,329256
2022-01-25 00:00:00+00:00,110.9089301018,111.7739872572,108.1082478196,109.656747921,469961
2022-01-26 00:00:00+00:00,110.1060041233,112.3618437771,109.3604300004,110.6699640367,1542526
2022-01-27 00:00:00+00:00,108.6339731627,113.0787419722,107.6972261878,110.6699640367,263932
2022-01-28 00:00:00+00:00,109.9721831268,110.0199763398,107.4869360505,108.8060287295,323081
2022-01-31 00:00:00+00:00,112.1228777121,112.1611122825,109.1883744335,109.9339485564,486256
2022-02-01 00:00:00+00:00,112.2949332789,113.6809364561,111.310393091,111.9221462175,214033
2022-02-02 00:00:00+00:00,111.8361184341,112.219709991,111.2511413097,111.9128367455,363591
2022-02-03 00:00:00+00:00,110.4647786179,112.5649423923,110.196264528,111.6635022334,167719
2022-02-04 00:00:00+00:00,110.5319071404,111.2703208875,108.9975409125,109.9756993828,242710
2022-02-07 00:00:00+00:00,110.0332381163,111.2703208875,109.6400567704,110.8771395417,263267
2022-02-08 00:00:00+00:00,111.2895004654,111.658707339,110.0332381163,110.2825726284,204194
2022-02-09 00:00:00+00:00,111.7689899116,112.8286615877,111.4333472993,112.2772487246,295864
2022-02-10 00:00:00+00:00,109.9085708603,112.4402751363,108.9975409125,110.7812416524,267089
2022-02-11 00:00:00+00:00,109.0454898571,111.6635022334,108.2399475875,110.320931784,230590
2022-02-14 00:00:00+00:00,109.4194916252,109.8126729711,107.8251892165,109.0454898571,266626
2022-02-15 00:00:00+00:00,109.4194916252,111.3662187768,108.7482064005,109.9565198049,263033
2022-02-16 00:00:00+00:00,109.9948789606,110.3554550242,108.4605127328,109.563338459,271428
2022-02-17 00:00:00+00:00,110.8675497527,111.4908860328,108.6666931946,109.2852345802,362421
2022-02-18 00:00:00+00:00,113.5814600183,116.5351150069,109.7263648707,111.5100656107,462347
2022-02-22 00:00:00+00:00,114.2143860873,115.2500832911,112.5074036588,113.6389987518,436912
2022-02-23 00:00:00+00:00,112.862225849,115.3699556526,112.7759177486,114.8281325784,321074
2022-02-24 00:00:00+00:00,112.0758631572,112.5265832366,110.0140585385,111.5004758217,349261
2022-02-25 00:00:00+00:00,116.0076766161,116.6118333183,112.0279142126,112.353967036,260057
2022-02-28 00:00:00+00:00,116.8803474082,117.0241942421,114.3870022879,114.5692082775,316349
2022-03-01 00:00:00+00:00,114.2143860873,117.8968650342,113.6677681186,116.9570657196,325723
2022-03-02 00:00:00+00:00,113.5239212847,115.135005824,113.1595093056,114.2047962984,435089
2022-03-03 00:00:00+00:00,114.4349512325,114.8377223673,112.5937117591,114.0034107309,196105
2022-03-04 00:00:00+00:00,115.25967308,115.4514688585,112.862225849,113.2074582502,206665
2022-03-07 00:00:00+00:00,111.7402205448,115.4131097028,111.6730920224,114.4157716547,337261
2022-03-08 00:00:00+00:00,105.6698841558,113.4376131844,105.5260373219,112.1621712575,382823
2022-03-09 00:00:00+00:00,108.6235391445,109.6880057151,106.6192732593,106.6192732593,224768
2022-03-10 00:00:00+00:00,107.6549704631,108.9975409125,106.8686077713,107.2426095394,223236
2022-03-11 00:00:00+00:00,107.6933296188,109.0550796461,107.6357908853,108.6523085112,237053
2022-03-14 00:00:00+00:00,109.82226276,111.1552434205,108.1440496983,108.1919986429,173771
2022-03-15 00:00:00+00:00,112.0183244236,112.1334018907,109.4099018362,110.3688807287,199537
2022-03-16 00:00:00+00:00,112.1909406243,114.2239758762,109.6688261372,112.8909952157,266775
2022-03-17 00:00:00+00:00,113.5526906515,113.6485885407,110.5414969293,112.4306853474,163294
2022-03-18 00:00:00+00:00,112.9101747936,113.9554617863,111.5004758217,113.2554071949,274267
2022-03-21 00:00:00+00:00,113.7924353746,113.8020251635,111.8792724842,112.9005850047,307941
2022-03-22 00:00:00+00:00,112.8430462711,115.518597381,112.5457628145,114.8664917341,294056
2022-03-23 00:00:00+00:00,109.9661095939,113.2554071949,109.3619528916,112.9677135271,256834
2022-03-24 00:00:00+00:00,111.0977046869,111.4525268771,109.3187988415,110.2825726284,210144
2022-03-25 00:00:00+00:00,112.4306853474,112.4498649252,111.2415515208,112.0566835793,148002
2022-03-28 00:00:00+00:00,111.7114511781,112.7507925017,110.2921624173,112.6128913369,167286
2022-03-29 00:00:00+00:00,114.4253614436,114.6842857446,112.6896096483,112.6896096483,184696
2022-03-30 00:00:00+00:00,113.9458719974,114.6651061667,113.3896642398,114.6651061667,156595
2022-03-31 00:00:00+00:00,112.6800198594,114.9134816998,112.6512504926,113.5431008626,211182
2022-04-01 00:00:00+00:00,114.1376677759,114.7322346892,112.478634292,113.3033561395,400825
2022-04-04 00:00:00+00:00,113.5526906515,113.8499741082,110.4743684068,113.8499741082,286349
2022-04-05 00:00:00+00:00,112.9005850047,114.3198737654,112.7663279597,112.8238666933,225256
2022-04-06 00:00:00+00:00,113.485562129,114.0417698866,111.5771941331,112.4498649252,194314
2022-04-07 00:00:00+00:00,115.0774670905,115.6480595314,111.845708223,113.0732012053,331904
2022-04-08 00:00:00+00:00,116.4296273288,117.2159900206,114.8952611009,114.8952611009,305272
2022-04-11 00:00:00+00:00,114.0801290423,117.283118543,114.0801290423,116.1611132389,207964
2022-04-12 00:00:00+00:00,112.2101202021,115.25967308,111.6203481833,114.3390533433,187436
2022-04-13 00:00:00+00:00,113.0444318385,113.1595093056,112.095042735,112.095042735,120171
2022-04-14 00:00:00+00:00,112.5841219702,113.8307945303,112.1621712575,112.603301548,163341
2022-04-18 00:00:00+00:00,109.3331835249,112.7144472016,108.9208226011,111.9895550569,137099
2022-04-19 00:00:00+00:00,112.4210955584,112.8094820099,108.8536940786,109.8702117046,221601
2022-04-20 00:00:00+00:00,114.5979776442,114.8377223673,112.5200621801,113.1403297278,141188
2022-04-21 00:00:00+00:00,114.0609494645,115.4131097028,113.4807672346,115.3172118136,178179
2022-04-22 00:00:00+00:00,111.8361184341,113.7348966411,111.6539124445,113.7348966411,179875
2022-04-25 00:00:00+00:00,110.6661641853,111.721040967,107.5734572573,111.721040967,379644
2022-04-26 00:00:00+00:00,106.408297903,110.9983465646,106.2735794936,110.0553176991,295251
2022-04-27 00:00:00+00:00,106.9086805663,108.7273790926,106.3986751594,106.7547166699,231456
2022-04-28 00:00:00+00:00,107.8709549188,108.0056733282,105.4171553199,106.9856625145,289153
2022-04-29 00:00:00+00:00,110.4979639012,112.0575219444,108.2751101469,108.2751101469,640172
2022-05-02 00:00:00+00:00,109.1122888336,112.5572310157,107.8420866882,111.0657057692,456988
2022-05-03 00:00:00+00:00,109.5356895487,111.0127806798,108.3905830692,108.7273790926,225358
2022-05-04 00:00:00+00:00,112.3455306581,112.3743988887,108.4675650174,109.083420603,346897
2022-05-05 00:00:00+00:00,108.5445469656,111.7970342772,107.6520375036,111.1330649739,179038
2022-05-06 00:00:00+00:00,107.0337762321,107.5052906649,105.6192329339,107.4764224343,331810
2022-05-09 00:00:00+00:00,102.9729784644,106.9086805663,102.6313710693,105.8501787785,276713
2022-05-10 00:00:00+00:00,100.5961608137,104.5318629155,100.0187962022,103.5022293583,411834
2022-05-11 00:00:00+00:00,100.1342691245,103.367510949,99.6050182306,100.4518196608,297836
2022-05-12 00:00:00+00:00,102.434104827,102.636182441,99.3548268989,99.8070958446,389328
2022-05-13 00:00:00+00:00,103.4541156407,104.2046896357,102.7324098763,102.9633557209,226883
2022-05-16 00:00:00+00:00,104.2431806098,104.3297853015,102.3378773918,103.2424152831,202521
2022-05-17 00:00:00+00:00,104.8494134519,106.225465776,104.137330431,105.9752744443,311156
2022-05-18 00:00:00+00:00,100.143891868,104.7916769907,99.6627546917,103.9160073299,325904
2022-05-19 00:00:00+00:00,99.5857727435,100.6538972748,98.4021752899,99.4895453083,357006
2022-05-20 00:00:00+00:00,95.9579984345,101.3226779498,93.5234443226,101.0195615288,796300
2022-05-23 00:00:00+00:00,100.2882330209,100.6442745313,95.9050733451,97.1415958881,545172
2022-05-24 00:00:00+00:00,100.9906932982,101.6306057427,98.9410489273,100.5576698396,567448
2022-05-25 00:00:00+00:00,100.509556122,101.298621091,98.6138756475,99.57615,493448
2022-05-26 00:00:00+00:00,102.5110867752,102.9169740971,101.3082438346,101.7123990626,188191
2022-05-27 00:00:00+00:00,104.7820542472,104.8205452213,102.9248647468,102.9248647468,178016
2022-05-31 00:00:00+00:00,103.0499604126,105.3016823976,102.3378773918,104.0026120216,306050
2022-06-01 00:00:00+00:00,103.203924309,103.8438367535,101.6450398579,103.4348701536,313932
2022-06-02 00:00:00+00:00,105.6865921386,105.8774111427,102.799769081,103.5407203324,145425
2022-06-03 00:00:00+00:00,104.6954495555,105.619040479,104.1517645463,104.6184676073,139814
2022-06-06 00:00:00+00:00,105.1284730141,106.6248096323,104.2431806098,105.455646294,207415
2022-06-07 00:00:00+00:00,106.023388162,106.1773520584,104.3105398145,104.5414856591,132946
2022-06-08 00:00:00+00:00,103.6465705112,105.2583800517,103.2135470526,104.8494134519,157655
2022-06-09 00:00:00+00:00,101.8374947284,103.6369477677,101.8086264979,102.7420326198,193753
2022-06-10 00:00:00+00:00,101.2312618864,101.8952311896,99.2393539766,99.6723774353,266773
2022-06-13 00:00:00+00:00,98.1616067018,99.3355814119,97.2378233233,98.989162645,252091
2022-06-14 00:00:00+00:00,95.765543564,98.421420777,94.6781735456,97.7766969608,227948
2022-06-15 00:00:00+00:00,96.5834767636,97.4206554503,94.8225146985,96.5161175589,283340
2022-06-16 00:00:00+00:00,91.1947403894,95.1593107219,90.4826573686,95.1593107219,620352
2022-06-17 00:00:00+00:00,93.8217493719,94.7416836529,90.9156808272,90.9253035707,458524
2022-06-21 00:00:00+00:00,93.5234443226,94.9764785949,93.4272168873,94.2836410611,236117
2022-06-22 00:00:00+00:00,94.7455327503,95.1111970042,92.6069742292,92.7343793535,228179
2022-06-23 00:00:00+00:00,95.197801696,95.5730886935,93.5041988355,94.8994966467,152130
2022-06-24 00:00:00+00:00,98.7485940568,98.7774622874,95.9068054389,96.2755489708,327255
2022-06-27 00:00:00+00:00,99.6627546917,100.2208738162,98.1423612147,98.7485940568,185180
2022-06-28 00:00:00+00:00,98.825576005,100.4325741737,98.1327384712,100.2882330209,280199
2022-06-29 00:00:00+00:00,99.4895453083,99.9706824845,97.516305521,98.6138756475,220930
2022-06-30 00:00:00+00:00,99.3163359248,99.595395487,97.5457511162,98.4695344946,205874
2022-07-01 00:00:00+00:00,100.5480470961,100.7212564795,98.3059478547,99.4414315906,262328
2022-07-05 00:00:00+00:00,99.0372763626,99.4414315906,97.1608413751,99.4414315906,230164
2022-07-06 00:00:00+00:00,98.7678395439,99.6435092047,97.6804695255,99.6242637176,286394
2022-07-07 00:00:00+00:00,99.2201084896,99.4029406165,98.0076428054,98.5850074169,221222
2022-07-08 00:00:00+00:00,96.2370579967,99.1413944475,96.2274352532,98.8544442356,208051
2022-07-11 00:00:00+00:00,95.7944117945,96.3454100888,94.7551554938,96.0446031262,186923
2022-07-12 00:00:00+00:00,96.718195173,98.0076428054,95.4768612582,95.7174298463,284288
2022-07-13 00:00:00+00:00,96.8721590694,97.488014655,95.7559208204,95.967621178,202511
2022-07-14 00:00:00+00:00,95.5538432064,96.1408305615,94.630059828,95.8232800251,199805
2022-07-15 00:00:00+00:00,96.2370579967,97.0068774787,95.4672385147,97.0068774787,195284
2022-07-18 00:00:00+00:00,94.3991139834,97.1415958881,94.0142042424,96.7759316341,179934
2022-07-19 00:00:00+00:00,97.2185778363,97.2763142974,94.832137442,94.832137442,635394
2022-07-20 00:00:00+00:00,97.9787745748,98.6138756475,96.8625363259,96.8721590694,458852
2022-07-21 00:00:00+00:00,99.57615,99.6868115505,97.7478287302,98.0653792665,138850
2022-07-22 00:00:00+00:00,99.6916229223,100.0608475914,98.4695344946,99.7012456658,214586
2022-07-25 00:00:00+00:00,99.9995507151,100.5672925831,99.0276536191,99.8070958446,267351
2022-07-26 00:00:00+00:00,100.2786102773,100.3269000829,98.3953078595,99.5832370769,262182
2022-07-27 00:00:00+00:00,102.4033617231,102.89591774,100.0951090161,100.6745866831,229187
2022-07-28 00:00:00+00:00,104.132136763,104.132136763,101.5534611448,102.4516515287,249802
2022-07-29 00:00:00+00:00,104.0741889963,105.7450162695,102.7462193427,103.5043692904,424421
2022-08-01 00:00:00+00:00,104.4991392855,104.9337475357,102.0015905406,102.6641266732,276995
2022-08-02 00:00:00+00:00,102.9442075456,104.3446119076,102.2102025007,104.1707686075,209714
2022-08-03 00:00:00+00:00,103.9582934629,105.0979328747,102.7993381289,103.6588966683,260719
2022-08-04 00:00:00+00:00,102.7993381289,103.552659096,102.2343474035,103.5333431738,292585
2022-08-05 00:00:00+00:00,102.0363592006,103.0214712346,101.4955133781,102.0556751229,174609
2022-08-08 00:00:00+00:00,103.6009489016,104.3059800631,102.3801826164,102.4999413342,219293
2022-08-09 00:00:00+00:00,103.6009489016,104.3059800631,102.8476279345,104.0741889963,249223
2022-08-10 00:00:00+00:00,106.0154391808,106.9522614092,104.3494408881,105.4939092805,152928
2022-08-11 00:00:00+00:00,105.8802277252,107.4834492706,105.8029640362,106.855681798,171052
2022-08-12 00:00:00+00:00,107.2806320871,107.348237815,106.3679547616,106.7397862646,201254
2022-08-15 00:00:00+00:00,108.0822428598,108.5796278574,106.8943136425,106.8943136425,146459
2022-08-16 00:00:00+00:00,108.2367702377,108.4202714989,106.9232875258,107.3578957761,187650
2022-08-17 00:00:00+00:00,107.2323422816,107.6572925707,106.2858620921,107.2033683982,173063
2022-08-18 00:00:00+00:00,107.2323422816,107.3385798538,106.2102402565,107.1454206315,197318
2022-08-19 00:00:00+00:00,106.3920996644,107.4543788076,105.8029640362,107.3675537372,253376
2022-08-22 00:00:00+00:00,104.2287163742,105.5711729694,104.0645310352,105.4359615138,178259
2022-08-23 00:00:00+00:00,103.2339463791,104.7309303523,102.3840458008,104.1900845297,177978
2022-08-24 00:00:00+00:00,103.7747922017,104.3687568104,103.0697610401,103.6975285127,182976
2022-08-25 00:00:00+00:00,105.2428022915,105.2428022915,103.8617138517,103.8617138517,132946
2022-08-26 00:00:00+00:00,100.8387720221,105.8029640362,100.6069809553,105.8029640362,152002
2022-08-29 00:00:00+00:00,100.4427956163,100.8967197888,99.2741823212,100.413821733,146702
2022-08-30 00:00:00+00:00,100.4910854219,101.0850500306,99.2065765934,100.8677459055,148892
2022-08-31 00:00:00+00:00,99.2934982434,101.1768006612,99.2355504767,100.8097981388,180329
2022-09-01 00:00:00+00:00,99.1099969822,99.3509631121,97.8641199981,98.8588899932,212243
2022-09-02 00:00:00+00:00,97.9606996093,100.6166389164,97.27498437,99.8053701826,205950
2022-09-06 00:00:00+00:00,96.8983238864,98.3953078595,96.3961099083,97.7965142703,159334
2022-09-07 00:00:00+00:00,99.7087905714,100.085451055,97.1784047588,97.197720681,164217
2022-09-08 00:00:00+00:00,101.3023541557,101.4230786697,98.6367568875,98.762310382,137922
2022-09-09 00:00:00+00:00,102.7703642455,103.1663406513,101.0995369723,102.065333084,197127
2022-09-12 00:00:00+00:00,103.4464215237,104.5667450133,103.0890769624,103.5140272515,154450
2022-09-13 00:00:00+00:00,100.4621115386,102.1281098312,100.4234796941,101.5631191059,271706
2022-09-14 00:00:00+00:00,100.0371612494,100.742192411,98.9458116432,100.2592943551,250694
2022-09-15 00:00:00+00:00,101.6017509504,101.7949101727,99.6894746492,99.7184485326,423013
2022-09-16 00:00:00+00:00,99.1293129044,100.7615083332,97.9317257259,100.7615083332,579386
2022-09-19 00:00:00+00:00,100.9546675555,100.9739834778,98.3566760151,98.3663339762,194369
2022-09-20 00:00:00+00:00,97.7192505814,99.9116077549,97.2460104866,99.9116077549,157490
2022-09-21 00:00:00+00:00,96.2608984527,98.7816263042,96.2222666082,98.3083862095,173491
2022-09-22 00:00:00+00:00,94.7639144796,95.7490265135,93.9429877846,95.7490265135,199123
2022-09-23 00:00:00+00:00,94.7252826351,94.9474157408,93.6146171066,93.6146171066,274902
2022-09-26 00:00:00+00:00,94.0781992403,95.0826271964,93.1317190508,94.1651208903,363989
2022-09-27 00:00:00+00:00,92.7743744895,95.4206558355,91.9727637168,94.638360985,238588
2022-09-28 00:00:00+00:00,94.879810013,95.130917002,92.7654891652,93.4407738065,237012
2022-09-29 00:00:00+00:00,93.4600897288,93.9333298235,92.9771916729,93.894697979,206398
2022-09-30 00:00:00+00:00,91.7796044944,94.4162278794,91.6250771166,92.8323222562,471485
2022-10-03 00:00:00+00:00,94.1071731236,94.6673348684,92.3880560448,93.1606929341,274207
2022-10-04 00:00:00+00:00,95.8359481635,96.4154258306,95.1405749631,95.7007367079,262850
2022-10-05 00:00:00+00:00,94.8218622463,96.0773971915,93.7111967178,94.7349405962,201289
2022-10-06 00:00:00+00:00,94.3969119571,94.8411781685,93.0254814785,94.3196482682,202122
2022-10-07 00:00:00+00:00,90.7655185771,93.6146171066,90.3985160547,93.6146171066,118995
2022-10-10 00:00:00+00:00,91.1421790607,92.2045547836,90.6979128493,91.1614949829,177259
2022-10-11 00:00:00+00:00,91.499523622,92.3783980837,90.1116746095,90.591675277,369763
2022-10-12 00:00:00+00:00,90.176382949,91.5188395443,90.0798033378,91.5188395443,147367
2022-10-13 00:00:00+00:00,91.3256803219,91.7747755139,87.1437831583,87.9550518921,236982
2022-10-14 00:00:00+00:00,91.8278943,92.6391630338,90.8910720717,92.1369490558,319273
2022-10-17 00:00:00+00:00,93.9912775902,94.0347384152,92.7336178936,92.735742645,344926
2022-10-18 00:00:00+00:00,95.8842379691,96.5602952473,94.7445985573,95.8552640858,281332
2022-10-19 00:00:00+00:00,94.8508361296,95.8166322413,94.2520425404,95.3337341855,359450
2022-10-20 00:00:00+00:00,92.7840324506,95.3240762243,92.1659229391,94.7252826351,185551
2022-10-21 00:00:00+00:00,94.1844368125,94.5659262767,91.2967064386,92.2914764336,176398
2022-10-24 00:00:00+00:00,94.5417813739,95.4206558355,93.9429877846,94.551439335,158470
2022-10-25 00:00:00+00:00,96.1836347638,96.3969237432,93.0376223173,93.5272174746,292477
2022-10-26 00:00:00+00:00,96.0672953204,97.9642099437,95.9412609235,96.8041117948,271850
2022-10-27 00:00:00+00:00,96.0672953204,97.57001313,95.854006341,96.0866852277,216658
2022-10-28 00:00:00+00:00,98.0450658569,100.9390095094,96.1933297174,98.8400520529,445333
2022-10-31 00:00:00+00:00,96.1254650421,97.5312333155,96.076990274,96.9107562845,372894
2022-11-01 00:00:00+00:00,94.2543389954,96.5617379545,93.9247105727,96.5617379545,301254
2022-11-02 00:00:00+00:00,91.8693804074,94.7681715367,91.6851762888,94.2252541346,268420
2022-11-03 00:00:00+00:00,91.8209056393,92.1214492012,89.7267956596,91.4040226341,278303
2022-11-04 00:00:00+00:00,95.7570568049,95.7667517585,93.294538588,93.4981326138,209127
2022-11-07 00:00:00+00:00,97.4245888258,97.4536736867,94.9911554697,96.1642448565,180746
2022-11-08 00:00:00+00:00,97.2888594753,98.6558479343,97.0755704959,97.9190314599,153120
2022-11-09 00:00:00+00:00,96.0963801813,97.8026920166,95.5437678255,97.172520032,165300
2022-11-10 00:00:00+00:00,99.20846029,100.1020441643,97.9578112744,99.6932079705,265971
2022-11-11 00:00:00+00:00,101.0698913831,101.869725056,98.364999326,99.7029029241,292552
2022-11-14 00:00:00+00:00,101.2153156873,102.0587766514,100.4494143521,100.4494143521,238446
2022-11-15 00:00:00+00:00,101.496469342,103.7456985795,101.098976244,102.6016940535,272476
2022-11-16 00:00:00+00:00,101.719453275,102.6598637752,101.5013168188,101.6612835533,139311
2022-11-17 00:00:00+00:00,101.4189097131,101.8648775792,100.5463638882,100.5463638882,162690
2022-11-18 00:00:00+00:00,102.8052880793,103.6681389506,101.4189097131,102.8731527546,213199
2022-11-21 00:00:00+00:00,101.9327422544,103.4451550176,101.7291482286,102.863457801,193315
2022-11-22 00:00:00+00:00,102.7665082649,103.4015277263,102.0296917905,102.0296917905,284010
2022-11-23 00:00:00+00:00,102.9507123835,103.5227146464,102.3593202133,102.7568133113,202079
2022-11-25 00:00:00+00:00,102.6792536824,103.3010880069,102.339930306,103.2997307134,114719
2022-11-28 00:00:00+00:00,100.3427698624,102.2720656308,100.0907010685,101.8357927183,208494
2022-11-29 00:00:00+00:00,100.1585657438,100.924467079,99.7901575066,99.8580221819,181438
2022-11-30 00:00:00+00:00,102.9022376154,102.9410174299,98.4037791404,99.7513776922,297906
2022-12-01 00:00:00+00:00,103.8232582084,104.4922100074,103.2561034222,103.5227146464,156570
2022-12-02 00:00:00+00:00,104.7539737549,105.2387214354,102.863457801,103.0185770587,167366
2022-12-05 00:00:00+00:00,103.4451550176,103.6681389506,102.4562697494,103.6002742753,153805
2022-12-06 00:00:00+00:00,103.7360036259,103.8135632547,102.1557261875,103.2997307134,247750
2022-12-07 00:00:00+00:00,103.0573568732,104.8606182446,102.9623463278,103.4742398784,152844
2022-12-08 00:00:00+00:00,104.6376343116,104.6473292652,103.2027811773,103.2027811773,190764
2022-12-09 00:00:00+00:00,104.7636687085,105.6556044406,104.3661756105,104.5406847755,316746
2022-12-12 00:00:00+00:00,104.7830586157,105.4617053684,104.2110563527,105.1514668529,209108
2022-12-13 00:00:00+00:00,104.9090930127,107.7206295595,104.2963719445,107.012897946,328373
2022-12-14 00:00:00+00:00,104.9381778735,106.9159484099,103.9589875589,105.1320769457,302454
2022-12-15 00:00:00+00:00,104.3661756105,105.2387214354,103.9686825125,104.4146503786,229997
2022-12-16 00:00:00+00:00,104.1625815847,104.9575677807,103.1446114557,103.8426481156,540619
2022-12-19 00:00:00+00:00,103.0185770587,105.0545173168,102.5532192855,104.0462421414,269761
2022-12-20 00:00:00+00:00,103.8523430692,104.8315333838,103.0282720123,103.1833912701,193278
2022-12-21 00:00:00+00:00,107.2649667399,107.2649667399,104.2884220826,104.6861090796,388504
2022-12-22 00:00:00+00:00,105.248416389,107.4200859976,104.1819714919,106.1597420283,213770
2022-12-23 00:00:00+00:00,106.6541846624,106.838388781,105.0448223632,105.8107236984,161517
2022-12-27 00:00:00+00:00,107.4879506729,107.633374977,106.2872306683,106.5475401727,101728
2022-12-28 00:00:00+00:00,105.8398085592,108.4962258483,105.6866282922,107.6721547915,162674
2022-12-29 00:00:00+00:00,107.410391044,107.7787992812,106.0385551082,106.56693008,128745
2022-12-30 00:00:00+00:00,106.6250998016,107.361916276,105.6943842551,107.1292373893,172340
2023-01-03 00:00:00+00:00,106.8965585027,107.6818497451,106.1112672603,107.2067970182,239234
2023-01-04 00:00:00+00:00,107.8369690028,108.7870744566,106.9450332707,107.8660538637,217226
2023-01-05 00:00:00+00:00,108.6998198741,109.5820606526,105.7913337912,107.2649667399,310027
2023-01-06 00:00:00+00:00,110.5806408744,110.9102692972,109.3009069979,109.921384029,181525
2023-01-09 00:00:00+00:00,109.8729092609,112.1512233593,109.8244344929,111.1332532302,161842
2023-01-10 00:00:00+00:00,109.969858797,110.8520995755,109.5141959774,109.7371799104,162998
2023-01-11 00:00:00+00:00,109.9989436579,110.939354158,109.9892487042,110.1152831012,141308
2023-01-12 00:00:00+00:00,110.0377234723,110.3140296502,108.9674975433,110.2219275909,179058
2023-01-13 00:00:00+00:00,110.493386292,110.8230147147,109.7565698176,109.7565698176,177702
2023-01-17 00:00:00+00:00,110.5806408744,111.0363036941,109.3881615804,110.6969803178,204526
2023-01-18 00:00:00+00:00,108.55439557,111.1041683694,108.5059208019,110.9975238797,118896
2023-01-19 00:00:00+00:00,108.5737854772,108.9809735288,106.964423178,108.1859873328,177398
2023-01-20 00:00:00+00:00,109.8341294465,109.8341294465,108.2830338184,109.0294482969,180755
2023-01-23 00:00:00+00:00,109.9019941218,110.2607074053,109.0294482969,109.746874864,165456
2023-01-24 00:00:00+00:00,109.397856534,109.6935526191,108.3508015442,109.5820606526,172566
2023-01-25 00:00:00+00:00,108.6513451061,109.0779230649,107.117603445,108.4283611731,181163
2023-01-26 00:00:00+00:00,109.349381766,109.4463313021,108.4089712658,109.0779230649,139024
2023-01-27 00:00:00+00:00,109.2912120443,109.4948060701,108.4429036035,109.0779230649,204294
2023-01-30 00:00:00+00:00,109.795349632,109.8719397656,108.0599529359,108.3023267761,200229
2023-01-31 00:00:00+00:00,112.1124435448,112.7717003903,109.8583668305,110.3576569414,630904
2023-02-01 00:00:00+00:00,113.8866200554,114.8299852684,111.260487387,111.3188458907,190891
2023-02-02 00:00:00+00:00,114.0908748185,115.1024222167,113.3905727736,113.8866200554,271605
2023-02-03 00:00:00+00:00,112.2623083679,113.4002991909,112.0604852091,113.4002991909,284051
2023-02-06 00:00:00+00:00,110.3364777444,112.3401197062,110.3364777444,111.4258364809,180382
2023-02-07 00:00:00+00:00,109.120675583,109.738303081,107.6812630882,109.587543613,189116
2023-02-08 00:00:00+00:00,107.5352695647,109.0914963312,107.5255431474,108.6635339704,138779
2023-02-09 00:00:00+00:00,106.2611088996,108.751071726,106.2513824823,108.4300999554,180195
2023-02-10 00:00:00+00:00,106.2222032304,106.2319296477,104.9334529394,106.0179484673,217891
2023-02-13 00:00:00+00:00,106.7960618506,107.5158167301,106.2611088996,106.407005159,184949
2023-02-14 00:00:00+00:00,106.7571561814,108.1577602713,106.6588221026,106.7960618506,122473
2023-02-15 00:00:00+00:00,107.3699204707,107.379646888,105.5997125238,105.8428729561,155197
2023-02-16 00:00:00+00:00,107.6617129894,108.4787320419,105.2203822495,105.7456087832,372175
2023-02-17 00:00:00+00:00,113.4975633638,117.9619889002,110.9006099472,111.8537988417,590720
2023-02-21 00:00:00+00:00,111.93161018,113.3127614353,110.0155059738,113.3127614353,463855
2023-02-22 00:00:00+00:00,111.5814591576,112.8264405707,111.2993930561,111.4744685674,257660
2023-02-23 00:00:00+00:00,111.4258364809,112.3936150013,109.9863267219,111.6689969132,196443
2023-02-24 00:00:00+00:00,111.630091244,111.8927045109,109.8987889663,110.6866287668,215098
2023-02-27 00:00:00+00:00,113.4975633638,114.0422427321,112.352374992,112.6708178941,215322
2023-02-28 00:00:00+00:00,113.5267426157,114.8787146191,113.4002991909,113.4586576946,261479
2023-03-01 00:00:00+00:00,114.2464974952,114.3923937545,113.001516082,113.001516082,194731
2023-03-02 00:00:00+00:00,115.3358562317,115.7443657579,114.0227898975,114.207591826,205047
2023-03-03 00:00:00+00:00,116.9601679192,116.9601679192,114.6258277695,115.7151865061,225357
2023-03-06 00:00:00+00:00,113.6337332059,116.9018094155,113.3905727736,116.8434509118,265875
2023-03-07 00:00:00+00:00,113.4781105292,114.1297804877,113.0382819393,113.5170161984,247066
2023-03-08 00:00:00+00:00,112.1747706123,113.5072897811,112.0205096341,113.2252236797,281690
2023-03-09 00:00:00+00:00,111.4355628982,113.2252236797,111.3976298708,112.7875349016,189712
2023-03-10 00:00:00+00:00,109.4805530228,111.5036478192,109.20335013,111.5036478192,201355
2023-03-13 00:00:00+00:00,108.9066944026,110.0155059738,108.4009207035,108.4009207035,245480
2023-03-14 00:00:00+00:00,111.93161018,112.1066856912,110.3851098308,110.7547136879,261457
2023-03-15 00:00:00+00:00,108.3328357825,110.6379966804,107.1559392903,110.3559305789,256158
2023-03-16 00:00:00+00:00,109.5972700303,110.1808550677,106.9419581099,107.2045713768,209153
2023-03-17 00:00:00+00:00,107.7297979105,109.8307040453,106.9419581099,109.8307040453,393789
2023-03-20 00:00:00+00:00,109.6945342032,110.3656569962,108.7413453087,108.7413453087,146437
2023-03-21 00:00:00+00:00,109.9279682182,111.095138293,109.3881520585,111.0076005374,141240
2023-03-22 00:00:00+00:00,109.1790340868,111.0902750844,109.0720434966,109.7139870378,176728
2023-03-23 00:00:00+00:00,108.6635339704,110.341340953,107.7784299969,109.0817699139,156888
2023-03-24 00:00:00+00:00,109.8793361317,109.8987889663,107.010043031,107.98268476,148787
2023-03-27 00:00:00+00:00,110.8617042781,111.698176165,110.3559305789,110.3559305789,170089
2023-03-28 00:00:00+00:00,111.8732516763,111.9705158492,110.0446852256,110.6574495149,189823
2023-03-29 00:00:00+00:00,112.699997146,112.768082067,112.0094215183,112.5249216347,138685
2023-03-30 00:00:00+00:00,112.7778084843,113.5753747021,111.9024309281,113.0987802549,148020
2023-03-31 00:00:00+00:00,114.9565259574,115.0343372957,113.3322142699,113.3322142699,206327
2023-04-03 00:00:00+00:00,115.4039411528,115.5595638294,114.426436215,114.7036391078,151094
2023-04-04 00:00:00+00:00,114.4507522583,115.2580448934,113.5851011194,115.2580448934,183073
2023-04-05 00:00:00+00:00,115.8221770962,115.9388941037,114.0227898975,114.5188371793,249720
2023-04-06 00:00:00+00:00,115.8027242617,116.0750639458,114.7036391078,116.0750639458,159279
2023-04-10 00:00:00+00:00,115.8416299308,115.9534837297,114.742544777,115.1413278859,174578
2023-04-11 00:00:00+00:00,115.7929978444,116.7072810697,115.579016664,115.9388941037,121846
2023-04-12 00:00:00+00:00,115.1510543032,116.3960357164,114.9565259574,116.0653375285,134313
2023-04-13 00:00:00+00:00,116.5030263066,116.717007487,114.6647334387,115.112148634,110672
2023-04-14 00:00:00+00:00,115.9388941037,116.7753659907,115.0732429649,115.9194412692,233578
2023-04-17 00:00:00+00:00,116.5322055585,116.5322055585,115.2872241453,116.2306866225,122358
2023-04-18 00:00:00+00:00,115.345582649,116.4543942201,114.8203561153,116.4543942201,261691
2023-04-19 00:00:00+00:00,115.4622996565,116.1626017014,114.8300825326,115.1316014686,252930
2023-04-20 00:00:00+00:00,115.7735450098,116.5224791412,115.2726345193,115.7443657579,296826
2023-04-21 00:00:00+00:00,117.2908661071,117.7577341371,115.5498374121,116.0556111112,361462
2023-04-24 00:00:00+00:00,117.1060641786,118.0980614781,116.4641206374,117.553479374,229624
2023-04-25 00:00:00+00:00,114.8398089499,116.6683754005,114.6583140033,116.1626017014,167516
2023-04-26 00:00:00+00:00,112.5832801385,114.358351294,112.4471102964,113.8088087171,246445
2023-04-27 00:00:00+00:00,113.3808463563,113.3905727736,111.4939214019,112.5832801385,361944
2023-04-28 00:00:00+00:00,115.2677713107,116.2939083348,113.3224878526,113.3224878526,586715
2023-05-01 00:00:00+00:00,118.3121399226,119.1486118096,116.1431488668,116.1431488668,283090
2023-05-02 00:00:00+00:00,117.1838755169,117.5729322086,112.5638273039,117.4367623665,359217
2023-05-03 00:00:00+00:00,116.9893471711,118.0724011775,116.8332312783,117.5455100392,294338
2023-05-04 00:00:00+00:00,115.9160504081,117.2332782536,115.5160034328,117.0283761443,192534
2023-05-05 00:00:00+00:00,118.7456509652,118.9212813446,116.1014380308,116.1014380308,171147
2023-05-08 00:00:00+00:00,118.5505060992,119.3701145364,117.7308976619,118.901766858,200362
2023-05-09 00:00:00+00:00,117.6528397155,118.0919156641,116.7844450618,117.9357997713,185633
2023-05-10 00:00:00+00:00,116.7161443587,118.6188068023,115.6184544874,118.1504591239,227190
2023-05-11 00:00:00+00:00,116.3843980865,116.921046468,116.0721663009,116.5795429525,203949
2023-05-12 00:00:00+00:00,117.8577418248,117.9357997713,116.4478201679,116.7746878185,168376
2023-05-15 00:00:00+00:00,117.6528397155,118.1336766654,117.1210699557,117.6625969588,148324
2023-05-16 00:00:00+00:00,115.4477027297,117.6528397155,115.3354944317,117.6528397155,180808
2023-05-17 00:00:00+00:00,116.0819235442,116.1502242473,114.6085798058,115.9355648947,168597
2023-05-18 00:00:00+00:00,116.1014380308,116.1599814906,114.9208115914,115.3013440802,94002
2023-05-19 00:00:00+00:00,116.1990104638,117.3503651732,115.7209055421,116.9698326845,156874
2023-05-22 00:00:00+00:00,115.262315107,116.6185719257,115.0232626461,115.7892062452,229606
2023-05-23 00:00:00+00:00,114.3353769934,115.5745468926,114.0719314243,114.550036346,155384
2023-05-24 00:00:00+00:00,112.3253848736,114.3451342367,112.2375696839,114.3451342367,297833
2023-05-25 00:00:00+00:00,110.7837404321,112.4815007664,110.6861679991,111.5155336796,196776
2023-05-26 00:00:00+00:00,111.3886895167,111.7106785456,110.2031844557,110.2470920506,210183
2023-05-30 00:00:00+00:00,110.6081100527,111.9350951415,110.2666065372,111.4374757332,136076
2023-05-31 00:00:00+00:00,109.7592298856,110.8032549187,108.9786504215,110.6861679991,360313
2023-06-01 00:00:00+00:00,110.1983058341,110.7642259455,109.320153937,110.0812189145,170690
2023-06-02 00:00:00+00:00,111.3886895167,111.9594882498,110.9008273517,111.2423308672,353036
2023-06-05 00:00:00+00:00,110.3153927537,111.3399033002,110.1363473391,111.0374287579,237399
2023-06-06 00:00:00+00:00,111.5448054095,111.8765516817,110.2958782671,110.2958782671,266852
2023-06-07 00:00:00+00:00,112.6083449293,112.891304985,111.2911170837,111.5838343827,264132
2023-06-08 00:00:00+00:00,112.40344282,113.1742650407,112.0033958446,112.7547035788,270471
2023-06-09 00:00:00+00:00,112.0229103312,112.7644608221,111.6131061126,112.2668414138,295007
2023-06-12 00:00:00+00:00,112.5888304427,112.7839753087,111.5252909229,111.8960661683,352968
2023-06-13 00:00:00+00:00,112.4132000633,113.5645547727,111.9741241147,112.9010622283,340628
2023-06-14 00:00:00+00:00,112.3644138468,113.1449933108,111.5740771394,112.8034897953,225220
2023-06-15 00:00:00+00:00,113.2328085005,113.574312016,112.1546331158,112.2082979539,362582
2023-06-16 00:00:00+00:00,114.3061052635,114.3646487233,112.5595587128,112.8425187685,975338
2023-06-20 00:00:00+00:00,112.9010622283,114.1130094186,112.9010622283,114.0426596944,297013
2023-06-21 00:00:00+00:00,110.8617983785,112.4571076581,110.6666535125,112.3448993602,317906
2023-06-22 00:00:00+00:00,111.2813598404,111.2911170837,109.6226284794,111.1837874074,266218
2023-06-23 00:00:00+00:00,110.0909761578,110.9691280548,109.3494256669,110.1592768609,366032
2023-06-26 00:00:00+00:00,110.8520411352,111.593591626,110.3153927537,110.3153927537,142333
2023-06-27 00:00:00+00:00,111.9350951415,112.0326675745,110.4812658898,111.0667004878,218253
2023-06-28 00:00:00+00:00,110.7642259455,112.0229103312,109.7494726423,112.0229103312,204800
2023-06-29 00:00:00+00:00,111.9936386013,112.5595587128,109.8177733454,110.6764107558,225865
2023-06-30 00:00:00+00:00,113.0474208778,113.4572250964,112.0521820611,112.4229573066,279940
2023-07-03 00:00:00+00:00,113.7109134222,114.1792611006,112.6083449293,112.6083449293,85660
2023-07-05 00:00:00+00:00,110.1983058341,112.8132470386,110.0226754547,112.8132470386,384164
2023-07-06 00:00:00+00:00,109.739715399,110.2373348073,108.9152283401,109.5250560464,277687
2023-07-07 00:00:00+00:00,111.0276715146,112.5302869829,109.8519236969,109.9153457784,333416
2023-07-10 00:00:00+00:00,111.691164059,112.501015253,110.2666065372,110.5593238362,247988
2023-07-11 00:00:00+00:00,112.7059173623,112.7547035788,110.617867296,111.5350481662,226717
2023-07-12 00:00:00+00:00,114.0329024511,114.6963949955,112.9596056881,113.7499423954,199445
2023-07-13 00:00:00+00:00,114.1695038573,114.5207646161,113.7304279088,114.0133879645,190322
2023-07-14 00:00:00+00:00,115.4769744596,115.9550793813,113.867029315,114.8329964017,271606
2023-07-17 00:00:00+00:00,116.3648835999,116.6380864123,114.3158625068,115.5257606761,234228
2023-07-18 00:00:00+00:00,116.1892532205,117.4479376062,115.8184779751,116.1209525174,189137
2023-07-19 00:00:00+00:00,116.2185249504,116.5112422494,115.435603748,115.8672641916,247195
2023-07-20 00:00:00+00:00,116.433184303,117.2967003351,115.9697152462,116.8722602515,175805
2023-07-21 00:00:00+00:00,116.9308037113,117.1357058206,115.9843511112,116.7454160886,184341
2023-07-24 00:00:00+00:00,116.823474035,117.5650245258,115.8282352184,117.1064340907,163377
2023-07-25 00:00:00+00:00,117.6333252289,118.1797308538,116.4039125731,116.7746878185,250661
2023-07-26 00:00:00+00:00,117.4381803629,117.8787571129,116.3318431907,117.6437828463,306926
2023-07-27 00:00:00+00:00,116.6451422129,118.2459044046,116.2535184351,117.5458769018,407776
2023-07-28 00:00:00+00:00,121.1879780352,124.3307588519,119.3277650907,119.9249913519,513037
2023-07-31 00:00:00+00:00,118.9165601241,121.3348369519,118.2997526741,120.9334225797,746502
2023-08-01 00:00:00+00:00,119.8760383796,119.9298866491,118.2214279185,118.7011670463,365307
2023-08-02 00:00:00+00:00,119.6802264907,119.7683418407,117.4675521463,118.8969789352,329178
2023-08-03 00:00:00+00:00,118.2801714852,120.1599656185,118.1920561352,118.9753036907,195935
2023-08-04 00:00:00+00:00,118.1137313796,119.5725299519,117.9570818685,118.0941501907,116530
2023-08-07 00:00:00+00:00,118.7501200185,119.112372013,117.9864536518,118.2018467296,140267
2023-08-08 00:00:00+00:00,118.583679913,118.8578165574,117.2032060963,117.5654580907,270087
2023-08-09 00:00:00+00:00,119.2788121185,120.8012495547,117.9962442463,118.583679913,287454
2023-08-10 00:00:00+00:00,119.6704358963,120.9774802547,119.2494403352,119.2494403352,216042
2023-08-11 00:00:00+00:00,120.0424784852,120.6397047463,118.9655130963,118.9655130963,226544
2023-08-14 00:00:00+00:00,120.4145210741,120.4145210741,119.0340472574,119.4746240074,145679
2023-08-15 00:00:00+00:00,119.5333675741,120.3508822102,119.4256710352,120.0620596741,248980
2023-08-16 00:00:00+00:00,118.9948848796,120.5809611796,118.9459319074,119.1809061741,291140
2023-08-17 00:00:00+00:00,119.0927908241,120.0914314574,119.0732096352,119.4060898463,186612
2023-08-18 00:00:00+00:00,120.7082389074,120.8355166352,118.8382353685,118.8382353685,443095
2023-08-21 00:00:00+00:00,121.1879780352,121.8537384574,120.4830552352,120.5711705852,358766
2023-08-22 00:00:00+00:00,120.3753586963,123.077562763,120.1893374019,121.2760933852,429600
2023-08-23 00:00:00+00:00,120.8061448519,120.9725849574,119.7487606519,120.4830552352,305025
2023-08-24 00:00:00+00:00,122.4901270963,122.8327979019,120.0228972963,120.9040507963,278430
2023-08-25 00:00:00+00:00,124.8692415464,125.0014145714,122.3628493686,122.9404944408,492953
2023-08-28 00:00:00+00:00,126.7000827075,126.8665228131,124.9573568964,124.9573568964,331923
2023-08-29 00:00:00+00:00,129.0596159687,129.1966842909,126.6902921131,127.0819158909,472394
2023-08-30 00:00:00+00:00,130.1072095742,130.4694615687,128.9421288353,129.5980986631,298864
2023-08-31 00:00:00+00:00,129.7841199576,130.9296195076,129.4659256381,130.4890427576,305773
2023-09-01 00:00:00+00:00,129.7743293631,130.9883630743,129.7449575798,130.3128120576,251989
2023-09-05 00:00:00+00:00,124.8986133297,129.2162654798,124.6930108464,128.9225476464,325303
2023-09-06 00:00:00+00:00,123.7629043741,125.3293015793,123.5524065936,125.1140064075,291122
2023-09-07 00:00:00+00:00,122.7348919575,124.5069895519,122.5194988797,123.6454172408,328552
2023-09-08 00:00:00+00:00,122.6859389852,124.0174598297,122.4999176908,122.8817508741,238788
2023-09-11 00:00:00+00:00,124.3503400408,125.2510747297,123.7580090769,124.3307588519,333524
2023-09-12 00:00:00+00:00,123.8803915075,124.6244766853,122.7936355241,123.4691865408,258007
2023-09-13 00:00:00+00:00,122.7446825519,123.9342397769,122.4901270963,123.1460969241,279312
2023-09-14 00:00:00+00:00,124.1055751797,124.6332882203,123.3712805964,123.3712805964,217859
2023-09-15 00:00:00+00:00,123.2929558408,124.531466038,122.548870663,123.8412291297,589390
2023-09-18 00:00:00+00:00,123.0090286019,123.7139514019,122.2992105047,123.7139514019,175188
2023-09-19 00:00:00+00:00,122.6859389852,123.0579815741,121.4621146797,123.0579815741,218739
2023-09-20 00:00:00+00:00,122.020178563,123.4593959464,121.9516444019,123.2048404908,206240
2023-09-21 00:00:00+00:00,119.6606453019,121.7460419186,119.6312735185,121.7264607297,335704
2023-09-22 00:00:00+00:00,120.1110126463,120.3264057241,119.552948763,119.7683418407,341156
2023-09-25 00:00:00+00:00,121.4425334908,121.5306488408,118.9276234958,119.4354616296,258777
2023-09-26 00:00:00+00:00,121.0117473352,121.6138688936,120.6494953408,120.9432131741,547004
2023-09-27 00:00:00+00:00,120.9334225797,121.843947863,120.2970339408,121.4425334908,362372
2023-09-28 00:00:00+00:00,122.8425884964,123.0090286019,120.6788671241,121.2663027908,219290
2023-09-29 00:00:00+00:00,122.4215929352,124.1741093408,122.1768280741,123.8412291297,330916
2023-10-02 00:00:00+00:00,122.4313835297,122.8523790908,121.3886852213,121.9222726186,244110
2023-10-03 00:00:00+00:00,120.2970339408,122.6859389852,119.9249913519,121.4229523019,236345
2023-10-04 00:00:00+00:00,121.6285547852,122.0495503463,119.7683418407,120.962794363,208157
2023-10-05 00:00:00+00:00,121.1586062519,122.3138963963,120.2236044824,121.3642087352,466718
2023-10-06 00:00:00+00:00,123.7629043741,124.0370410186,120.8061448519,121.0215379297,491688
2023-10-09 00:00:00+00:00,124.2818058797,124.5559425242,123.0579815741,123.1852593019,275718
2023-10-10 00:00:00+00:00,123.8901821019,125.916835152,123.8608103186,124.575523713,322013
2023-10-11 00:00:00+00:00,124.8594509519,125.0258910575,123.9929833436,124.8594509519,212866
2023-10-12 00:00:00+00:00,122.7936355241,124.7320753182,122.4411741241,124.5559425242,189279
2023-10-13 00:00:00+00:00,123.3321182186,124.0174598297,122.7740543352,123.3614900019,324917
2023-10-16 00:00:00+00:00,124.0566222075,124.7615450075,123.5279301075,124.6930108464,275211
2023-10-17 00:00:00+00:00,124.8104979797,125.6524891019,123.3712805964,123.3712805964,314395
2023-10-18 00:00:00+00:00,124.1251563686,124.9965192742,123.638074295,124.2132717186,287338
2023-10-19 00:00:00+00:00,123.0971439519,124.8007073853,122.7642637408,123.4398147575,443939
2023-10-20 00:00:00+00:00,119.6606453019,123.8314385353,119.376718063,123.2929558408,446518
2023-10-23 00:00:00+00:00,118.9557225018,120.5809611796,118.671795263,119.1711155796,379047
2023-10-24 00:00:00+00:00,120.7571918797,121.1781874408,119.1711155796,119.5725299519,312070
2023-10-25 00:00:00+00:00,120.2089185908,121.5940176772,119.7373954975,120.2678589774,431281
2023-10-26 00:00:00+00:00,121.2501987551,123.1755847192,119.1185214376,119.1185214376,576043
2023-10-27 00:00:00+00:00,119.0301108576,121.6529580639,118.2344156377,121.2894923462,364010
2023-10-30 00:00:00+00:00,120.0124506352,120.1598016019,118.7157621287,119.7668656908,283053
2023-10-31 00:00:00+00:00,120.110684613,120.7197352751,119.6794374506,120.3464461596,422924
2023-11-01 00:00:00+00:00,120.7590288662,121.2452870562,119.4574286609,119.9535102486,360459
2023-11-02 00:00:00+00:00,121.3975497217,122.0950109638,120.8081458551,121.5350772906,384317
2023-11-03 00:00:00+00:00,123.1362911281,123.7492711494,122.2325385327,122.2325385327,278042
2023-11-06 00:00:00+00:00,122.9791167637,123.5095802437,122.5468872616,123.0577039459,173549
2023-11-07 00:00:00+00:00,122.350419306,122.7826488082,121.9771301905,122.4191830905,205013
2023-11-08 00:00:00+00:00,122.9103529793,123.273818697,122.2128917372,122.6745914327,175807
2023-11-09 00:00:00+00:00,122.1932449416,123.4702866525,121.8788962128,123.4702866525,118583
2023-11-10 00:00:00+00:00,123.4997568459,123.5685206303,121.7020750528,122.045893975,195598
2023-11-13 00:00:00+00:00,122.3307725105,123.2639952992,122.173598146,123.1755847192,183085
2023-11-14 00:00:00+00:00,125.5921405723,125.60196397,123.096997537,123.7256949947,267352
2023-11-15 00:00:00+00:00,125.4546130034,126.525363361,125.1009706834,125.5626703789,388569
2023-11-16 00:00:00+00:00,125.297438639,126.3436305022,124.5999773968,125.3956726167,216999
2023-11-17 00:00:00+00:00,125.6707277545,126.8004184988,125.3563790256,126.2896018144,162670
2023-11-20 00:00:00+00:00,125.0715004901,125.3994055079,124.197218088,125.1992046612,213932
2023-11-21 00:00:00+00:00,125.6510809589,126.030657049,124.9536197168,125.209028059,160598
2023-11-22 00:00:00+00:00,126.2994252122,126.9182992721,125.1107940812,126.1815444389,174832
2023-11-24 00:00:00+00:00,126.2601316211,126.6923611232,125.8377255167,126.6923611232,65897
2023-11-27 00:00:00+00:00,124.7571517613,126.0341934722,124.6098007946,125.5626703789,367464
2023-11-28 00:00:00+00:00,123.3916994703,124.766975159,123.273818697,124.7571517613,218011
2023-11-29 00:00:00+00:00,123.1559379237,124.1677478947,122.7089733249,123.4211696637,331773
2023-11-30 00:00:00+00:00,124.6490943857,124.8799442335,122.6058276482,123.2345251059,300962
2023-12-01 00:00:00+00:00,125.8377255167,126.26504332,124.1873946902,124.1873946902,218283
2023-12-04 00:00:00+00:00,126.1520742455,126.6039505432,124.6490943857,125.1992046612,191960
2023-12-05 00:00:00+00:00,123.7649885858,126.4173059855,123.6569312103,125.9850764833,178030
2023-12-06 00:00:00+00:00,124.1382777013,125.0518536946,123.6580117841,124.1579244969,179294
2023-12-07 00:00:00+00:00,124.2561584747,124.8652091368,123.7649885858,124.0105735303,253952
2023-12-08 00:00:00+00:00,125.0715004901,125.2483216501,123.4015228681,124.1284543036,265821
2023-12-11 00:00:00+00:00,125.3170854345,125.4251428101,124.108807508,125.0125601035,337976
2023-12-12 00:00:00+00:00,125.2286748545,125.8377255167,124.4378913335,125.3956726167,210306
2023-12-13 00:00:00+00:00,126.3190720077,126.7120079188,124.9339729212,124.9339729212,424977
2023-12-14 00:00:00+00:00,125.1500876723,127.713994492,124.6343592891,126.8004184988,412923
2023-12-15 00:00:00+00:00,123.7551651881,126.3092486099,123.7453417903,124.9143261257,712996
2023-12-18 00:00:00+00:00,124.8062687501,124.9634431146,123.6569312103,124.4722732257,240485
2023-12-19 00:00:00+00:00,124.0007501325,125.8622840111,123.8047733468,125.4546130034,659097
2023-12-20 00:00:00+00:00,123.3524058792,124.6982113746,123.2443485037,123.7944587792,346449
2023-12-21 00:00:00+00:00,123.6864014036,124.0105735303,122.6451212393,124.0105735303,421869
2023-12-22 00:00:00+00:00,124.0400437236,124.8011605833,123.887781058,124.1677478947,312238
2023-12-26 00:00:00+00:00,123.6078142214,124.6294475902,123.3720526748,123.9123395525,274692
2023-12-27 00:00:00+00:00,123.0675273437,124.2365116791,122.8219423993,123.8926927569,281465
2023-12-28 00:00:00+00:00,122.9889401615,123.5783440281,122.2030683394,122.7728254104,343618
2023-12-29 00:00:00+00:00,121.4368433128,123.1461145259,121.3779029262,122.9791167637,313527
2024-01-02 00:00:00+00:00,120.7099118774,121.9083664061,120.1337695978,120.4446801374,313132
2024-01-03 00:00:00+00:00,123.1461145259,125.0125601035,120.9751436173,122.9398231726,531783
2024-01-04 00:00:00+00:00,122.0262471794,123.6962248014,121.9378365994,122.9692933659,353332
2024-01-05 00:00:00+00:00,122.0066003838,122.173598146,120.8179692529,121.5940176772,422966
2024-01-08 00:00:00+00:00,122.1539513505,122.9447348715,120.2089185908,121.8788962128,352405
2024-01-09 00:00:00+00:00,122.4290064882,122.4339181871,120.7983224573,121.5252538928,250307
2024-01-10 00:00:00+00:00,122.9791167637,123.2050549126,122.0360705772,122.262008726,279578
2024-01-11 00:00:00+00:00,124.5999773968,124.7276815679,122.7335318193,123.1657613215,323136
2024-01-12 00:00:00+00:00,124.197218088,125.7100213456,123.6962248014,125.6314341634,231652
2024-01-16 00:00:00+00:00,124.5705072035,124.5803306013,123.2934654926,123.6569312103,257472
2024-01-17 00:00:00+00:00,124.4526264302,125.0223835012,123.6667546081,123.715871597,336850
2024-01-18 00:00:00+00:00,126.8593588854,127.7090827931,124.0793373147,125.0715004901,444193
2024-01-19 00:00:00+00:00,128.4900429163,129.1383871696,126.26504332,127.4192925587,417963
2024-01-22 00:00:00+00:00,128.8731554296,129.4772943929,128.2542813697,128.5882768941,266190
2024-01-23 00:00:00+00:00,129.5018528873,129.5214996829,128.0283432208,129.472382694,217778
2024-01-24 00:00:00+00:00,128.4703961208,129.9488174861,128.2346345741,129.7867314228,294335
2024-01-25 00:00:00+00:00,128.9320958163,130.042139765,128.0774602097,129.6983208428,332302
2024-01-26 00:00:00+00:00,129.3741487162,130.2484311183,129.0794467829,129.3545019207,219885
2024-01-29 00:00:00+00:00,129.9144355939,130.2507887338,128.1855175853,128.7356278607,187791
2024-01-30 00:00:00+00:00,129.9144355939,130.7346893083,129.3084301851,129.6983208428,228363
2024-01-31 00:00:00+00:00,127.9890496297,130.8369735089,127.2795322619,130.4427971935,537487
2024-02-01 00:00:00+00:00,128.6000229187,129.2011417998,127.7229806168,128.5606052871,298800
2024-02-02 00:00:00+00:00,128.2058466032,128.8069654843,126.8161780031,128.0678848928,344843
2024-02-05 00:00:00+00:00,128.747839037,129.5361916679,126.1856929865,127.2499690382,319530
2024-02-06 00:00:00+00:00,129.2208506155,129.4869196285,127.4174939723,128.5803141029,369692
2024-02-07 00:00:00+00:00,129.8810959439,130.4920692329,127.4864748275,129.4967740364,393013
2024-02-08 00:00:00+00:00,130.1964369963,132.8768359414,129.6248813389,129.7234254177,620725
2024-02-09 00:00:00+00:00,136.9368519907,137.1832121878,129.5903909113,130.1865825884,650944
2024-02-12 00:00:00+00:00,135.606506926,138.4248675815,135.5030356432,137.1339401484,491253
2024-02-13 00:00:00+00:00,133.9509664011,135.3305835052,133.0147976518,134.6999014004,275877
2024-02-14 00:00:00+00:00,135.172912979,135.4586908077,133.2020314017,134.2761618613,334958
2024-02-15 00:00:00+00:00,133.0739240992,135.8035950837,132.6107669285,135.172912979,471417
2024-02-16 00:00:00+00:00,135.4981084392,135.9908288336,133.0739240992,133.3991195594,453937
2024-02-20 00:00:00+00:00,137.6562237664,138.0957303581,134.9561160055,135.1433497553,373046
2024-02-21 00:00:00+00:00,137.9617104109,138.0701088976,136.9664152143,137.0551048853,276273
2024-02-22 00:00:00+00:00,139.4103083702,140.3464771194,138.0306912661,138.4248675815,295737
2024-02-23 00:00:00+00:00,139.3019098834,139.9818640276,138.557902088,139.9030287645,190330
2024-02-26 00:00:00+00:00,139.8537567251,139.9867912315,138.7500630418,139.4398715938,199254
2024-02-27 00:00:00+00:00,138.2671970553,140.1099713301,137.7646222531,139.8537567251,244595
2024-02-28 00:00:00+00:00,138.3657411342,139.1836569888,137.3014650825,137.6168061348,189620
2024-02-29 00:00:00+00:00,138.4150131736,139.5679788964,137.7941854768,138.5825381077,250582
2024-03-01 00:00:00+00:00,138.2474882396,138.7352814299,137.5281164638,137.8434575162,151373
2024-03-04 00:00:00+00:00,139.8931743566,140.0508448828,138.5135572525,138.641664555,260259
2024-03-05 00:00:00+00:00,140.4450211982,141.1249753424,139.6763773831,140.1986610011,190208
2024-03-06 00:00:00+00:00,140.987013632,141.5487148815,140.4056035667,140.8490519216,183984
2024-03-07 00:00:00+00:00,142.5440100781,143.0219488606,141.7458030393,142.3961939598,250091
2024-03-08 00:00:00+00:00,141.0067224478,142.9628224132,140.8884695531,142.6031365254,185255
2024-03-11 00:00:00+00:00,140.6618181718,141.2925002765,139.9128831724,140.7110902112,226613
2024-03-12 00:00:00+00:00,140.3366227115,140.7702166585,139.4201627781,140.7209446191,242103
2024-03-13 00:00:00+00:00,139.1048217257,140.9180327768,138.8781703443,140.9180327768,336764
2024-03-14 00:00:00+00:00,138.8781703443,139.5581244885,138.3164690948,139.3019098834,235184
2024-03-15 00:00:00+00:00,138.9471511995,140.3366227115,137.7066783347,138.0011280424,599511
2024-03-18 00:00:00+00:00,137.2324842273,139.2427834361,136.907288767,138.8781703443,299728
2024-03-19 00:00:00+00:00,137.4788444244,138.2721242593,136.8580167276,136.8580167276,253013
2024-03-20 00:00:00+00:00,137.9321471872,138.0306912661,137.1142313326,137.5970973191,219954
2024-03-21 00:00:00+00:00,139.0851129099,139.5384156727,137.2716062266,138.2671970553,255837
2024-03-22 00:00:00+00:00,139.5285612648,140.376040343,138.9964232389,139.942446396,276019
2024-03-25 00:00:00+00:00,140.8786151453,141.9527456049,139.1146761336,139.1442393572,316320
2024-03-26 00:00:00+00:00,141.1151209345,142.2089602099,140.5435652771,140.7505078427,314251
2024-03-27 00:00:00+00:00,142.553864486,143.0367304724,141.5782781052,141.5782781052,218170
2024-03-28 00:00:00+00:00,141.7950750787,143.2360851439,141.5585692894,142.7115350121,247840
2024-04-01 00:00:00+00:00,140.2183698169,141.6965309998,140.0508448828,141.6965309998,191085
2024-04-02 00:00:00+00:00,138.5825381077,139.774921462,138.3460323184,139.774921462,202598
2024-04-03 00:00:00+00:00,138.8288983049,139.1343849493,137.8336031083,138.6219557392,258657
2024-04-04 00:00:00+00:00,139.686231791,140.6716725796,138.9175879758,139.7650670541,403637
2024-04-05 00:00:00+00:00,139.6665229752,140.6864541915,138.8954155581,139.3216186992,288267
2024-04-08 00:00:00+00:00,138.4642852131,140.3070594878,138.3460323184,139.6073965279,312526
2024-04-09 00:00:00+00:00,138.2671970553,139.0456952784,137.3310283061,138.3755955421,242550
2024-04-10 00:00:00+00:00,137.3704459377,138.1735801804,136.4342771884,136.9565608064,200711
2024-04-11 00:00:00+00:00,137.1043769247,138.0011280424,136.4342771884,137.2324842273,265323
2024-04-12 00:00:00+00:00,135.2024762026,136.9269975828,133.9805296247,136.1583537676,299234
2024-04-15 00:00:00+00:00,136.1879169913,137.774476661,135.8233038995,136.5919477146,319558
2024-04-16 00:00:00+00:00,136.5722388989,137.3605915298,135.3601467288,135.7838862679,281692
2024-04-17 00:00:00+00:00,136.385005149,137.4492812008,136.3357331096,136.8580167276,565361
2024-04-18 00:00:00+00:00,137.084668109,137.4098635692,136.2076258071,136.3751507411,246574
2024-04-19 00:00:00+00:00,137.3113194903,137.8828751478,136.7496182408,137.0353960695,276582
2024-04-22 00:00:00+00:00,138.2770514632,139.0949673178,137.2226298194,137.518262056,298792
2024-04-23 00:00:00+00:00,138.1095265291,139.1048217257,137.4886988323,137.7350590295,417184
2024-04-24 00:00:00+00:00,138.3755955421,139.2552061416,138.0099147311,138.3162959511,559220
2024-04-25 00:00:00+00:00,138.5436110498,139.6011204223,137.2983196394,138.2075800343,694402
2024-04-26 00:00:00+00:00,141.6568395761,146.7714292977,140.2385910252,140.3423653094,489509
2024-04-29 00:00:00+00:00,144.6712354507,146.2920909374,142.684699153,143.2085122066,676652
2024-04-30 00:00:00+00:00,142.6945824182,144.3994456587,142.378317933,144.0387064803,585121
2024-05-01 00:00:00+00:00,143.6829089344,145.4915464592,142.8922477214,143.2974615931,359575
2024-05-02 00:00:00+00:00,144.2166052532,145.0122080988,143.593959548,144.0584730106,356539
2024-05-03 00:00:00+00:00,145.0962158527,145.4124803379,143.1492126156,145.3927138076,303324
2024-05-06 00:00:00+00:00,147.3001839839,147.3397170446,145.4421301334,146.0351260431,260199
2024-05-07 00:00:00+00:00,147.972246015,148.6245415157,146.5885888922,146.5885888922,392912
2024-05-08 00:00:00+00:00,149.0297553874,149.1088215087,147.7306001818,147.972246015,223510
2024-05-09 00:00:00+00:00,147.3397170446,149.9587823127,146.8949701123,149.2373039558,299133
2024-05-10 00:00:00+00:00,146.7566044,147.2618369151,146.3612737935,147.2112345975,186303
2024-05-13 00:00:00+00:00,146.1438419599,147.7350476511,145.1456321785,146.7961374607,167458
2024-05-14 00:00:00+00:00,146.1734917554,146.5737639945,145.7435697208,146.5688223619,137623
2024-05-15 00:00:00+00:00,145.5607293153,146.6083554226,145.056682792,146.2327913464,211112
2024-05-16 00:00:00+00:00,145.8176942096,146.1685501228,144.7157101439,145.6496787018,235527
2024-05-17 00:00:00+00:00,145.9461766567,146.4353982822,145.4124803379,146.1240754296,169494
2024-05-20 00:00:00+00:00,146.4403399148,146.6775382787,145.3235309514,145.8671105354,163388
2024-05-21 00:00:00+00:00,146.8554370516,146.9443864381,145.3729472772,146.2130248161,280401
2024-05-22 00:00:00+00:00,147.0531023549,147.0926354155,145.7485113534,146.3415072632,283258
2024-05-23 00:00:00+00:00,145.9955929825,147.2112345975,145.8374607399,146.9246199078,171707
2024-05-24 00:00:00+00:00,146.3612737935,147.0926354155,145.6397954366,146.7467211348,162320
2024-05-28 00:00:00+00:00,144.9973832011,146.0499509409,144.1177726016,145.8967603309,318431
2024-05-29 00:00:00+00:00,143.1492126156,144.9874999359,142.8280064979,143.9497570938,229680
2024-05-30 00:00:00+00:00,144.4340370868,145.2621558748,143.3073448582,143.4358273054,328097
2024-05-31 00:00:00+00:00,145.965943187,146.1043088993,144.2166052532,144.384620761,358871
2024-06-03 00:00:00+00:00,146.4304566496,146.7664876652,144.32532117,146.7664876652,266215
2024-06-04 00:00:00+00:00,146.4601064451,146.6577717484,144.9874999359,145.9264101263,287867
2024-06-05 00:00:00+00:00,146.1932582857,146.4699897103,145.3630640121,145.9955929825,229231
2024-06-06 00:00:00+00:00,144.2561383139,146.2822076722,143.7026754647,146.2822076722,197623
2024-06-07 00:00:00+00:00,143.8509244422,144.6218191249,143.7520917906,144.0683562758,179120
2024-06-10 00:00:00+00:00,143.8904575028,144.1078893364,142.3091350768,143.1393293505,125799
2024-06-11 00:00:00+00:00,143.8015081164,144.0387064803,142.6649326227,143.2183954718,147727
2024-06-12 00:00:00+00:00,144.1276558667,144.6020525945,142.3882011981,144.5328697384,221319
2024-06-13 00:00:00+00:00,144.1276558667,144.8194844281,143.3271113886,144.1869554577,232384
2024-06-14 00:00:00+00:00,143.0602632292,143.6829089344,142.0002830405,143.3962942447,141531
2024-06-17 00:00:00+00:00,144.6218191249,144.9676345729,142.8823644562,143.1788624111,303775
2024-06-18 00:00:00+00:00,144.9776166707,145.965943187,144.7601848371,144.7700681023,219892
2024-06-20 00:00:00+00:00,144.1078893364,145.8078109444,143.9695236241,144.9479668752,199915
2024-06-21 00:00:00+00:00,145.1357489133,145.4174219705,143.6137260783,144.1671889274,444074
2024-06-24 00:00:00+00:00,145.0072664662,146.4996395058,144.9578501404,145.5014297243,182882
2024-06-25 00:00:00+00:00,143.168979146,145.0863325875,142.8131816001,145.0764493224,194504
2024-06-26 00:00:00+00:00,142.0324036523,143.0948546572,141.2911587651,142.566099971,192427
2024-06-27 00:00:00+00:00,142.1905358949,142.20041916,140.6092134688,142.1905358949,377322
2024-06-28 00:00:00+00:00,139.1662567551,142.6352828272,138.4546616634,142.1015865084,435070
2024-07-01 00:00:00+00:00,136.9227555632,139.828435521,136.7745065857,139.7296028694,306423
2024-07-02 00:00:00+00:00,138.7610428834,138.8598755351,136.1518608805,136.8634559722,259374
2024-07-03 00:00:00+00:00,139.5714706268,139.7493693997,138.9290583912,139.2354396112,143290
2024-07-05 00:00:00+00:00,139.2552061416,139.7839608278,138.0988641175,139.344155528,206970
2024-07-08 00:00:00+00:00,139.8580853165,140.8365285676,139.8482020513,139.9964510288,249264
2024-07-09 00:00:00+00:00,138.4052453376,139.6208869526,138.1186306479,139.2156730809,238431
2024-07-10 00:00:00+00:00,139.6406534829,139.9766844984,138.9290583912,139.1069571641,142003
2024-07-11 00:00:00+00:00,140.4313146959,141.6271897806,139.1069571641,139.5517040964,244519
2024-07-12 00:00:00+00:00,142.9021309866,143.7916248512,141.7359056974,141.7359056974,263895
2024-07-15 00:00:00+00:00,141.7556722277,143.9892901545,141.469057538,143.0701464943,319875
2024-07-16 00:00:00+00:00,142.8724811911,143.6038428131,142.1707693645,142.1707693645,178792
2024-07-17 00:00:00+00:00,143.168979146,144.0682574431,142.6550493575,142.6550493575,242285
2024-07-18 00:00:00+00:00,144.5724027991,145.5310795198,142.9169558843,142.9218975169,434172
2024-07-19 00:00:00+00:00,144.2363717835,144.8787840191,142.9663722101,144.8787840191,251235
2024-07-22 00:00:00+00:00,145.4717799289,145.8374607399,143.5544264873,144.2857881093,235688
2024-07-23 00:00:00+00:00,144.3352044352,146.7763709303,143.9645819916,146.1438419599,234547
2024-07-24 00:00:00+00:00,142.4573840543,144.9158462635,142.2201856904,144.3648542306,250577
2024-07-25 00:00:00+00:00,140.2830657185,142.8212284737,140.0153688654,141.6116352857,558095
2024-07-26 00:00:00+00:00,145.4089647203,149.9994700159,141.1406871182,141.9090762336,562787
2024-07-29 00:00:00+00:00,146.5392403222,147.0895060758,143.9316746791,145.3296471342,390942
2024-07-30 00:00:00+00:00,144.5067271784,146.6383873048,144.1646700883,146.1228229952,411026
2024-07-31 00:00:00+00:00,145.7262350647,147.5802836398,144.1696274374,145.2503295481,280587
2024-08-01 00:00:00+00:00,145.775808556,148.2642986729,144.189456834,145.6270880821,335307
2024-08-02 00:00:00+00:00,144.4472389888,145.7460644612,142.5237875258,145.3296471342,213450
2024-08-05 00:00:00+00:00,139.4799751592,142.2065171814,138.2902113677,142.2065171814,448532
2024-08-06 00:00:00+00:00,143.6937219208,144.8388695702,139.9063071845,140.1244305463,476046
2024-08-07 00:00:00+00:00,142.3750670519,146.003846616,142.2461759745,144.7645093332,353634
2024-08-08 00:00:00+00:00,144.3183479114,144.9132298071,143.2277311025,143.2277311025,268614
2024-08-09 00:00:00+00:00,142.7220814911,144.1696274374,142.2461759745,144.1696274374,263240
2024-08-12 00:00:00+00:00,142.0677114058,142.95081358,141.5521470961,142.7419108876,221275
2024-08-13 00:00:00+00:00,143.1384988181,144.0605657565,141.8793321388,142.2858347675,212115
2024-08-14 00:00:00+00:00,142.6725079998,143.5747455417,142.266005371,142.9005460598,115706
2024-08-15 00:00:00+00:00,145.7559791595,146.0831642021,143.7631248087,143.7631248087,277520
2024-08-16 00:00:00+00:00,145.4684529098,145.587429289,144.3679214027,144.8636563158,250647
2024-08-19 00:00:00+00:00,145.7163203664,146.4698374344,144.6752770488,145.0718649793,191184
2024-08-20 00:00:00+00:00,146.8465959684,147.0448899336,145.7262350647,145.7262350647,387203
2024-08-21 00:00:00+00:00,148.0561891564,148.2990992638,146.2021405813,146.9060841579,267296
2024-08-22 00:00:00+00:00,147.7190894155,149.1170618705,147.4018190711,148.2941419147,200439
2024-08-23 00:00:00+00:00,149.1567206636,149.2459529479,148.1626730157,148.3833741991,221443
2024-08-26 00:00:00+00:00,148.8791091122,151.3676983761,148.8592797157,149.3946734219,235517
2024-08-27 00:00:00+00:00,149.9102377315,150.2473374725,148.5618387678,148.7303886383,208270
2024-08-28 00:00:00+00:00,150.2473374725,150.6687121486,149.6425408784,149.6425408784,248964
2024-08-29 00:00:00+00:00,150.9810251439,151.6056511344,149.9201524298,151.248721997,187083
2024-08-30 00:00:00+00:00,151.8832626858,152.1311301424,150.3464844551,150.9017075578,178473
2024-09-03 00:00:00+00:00,148.7601327331,151.0752147774,148.4527770869,150.8124752734,362364
2024-09-04 00:00:00+00:00,149.4442469132,149.6127967836,148.3238860095,148.3238860095,170507
2024-09-05 00:00:00+00:00,149.4343322149,150.4654608342,148.6709004487,149.7912613524,200644
2024-09-06 00:00:00+00:00,151.0801721265,151.8148512678,149.097232474,149.097232474,319137
2024-09-09 00:00:00+00:00,150.6141813082,151.7543716084,150.1432331407,151.2685513935,241501
2024-09-10 00:00:00+00:00,150.2175933777,151.4866747553,150.1481904898,150.5745225151,158060
2024-09-11 00:00:00+00:00,149.5533085941,149.5929673871,147.362160278,149.5037351028,178025
2024-09-12 00:00:00+00:00,150.6637547995,150.7133282908,148.6907298452,149.6028820854,200432
2024-09-13 00:00:00+00:00,150.9810251439,151.7047981171,150.5993092608,150.8917928595,138618
2024-09-16 00:00:00+00:00,151.6849687205,151.8634332893,150.7728164804,151.7345422119,182901
2024-09-17 00:00:00+00:00,151.7246275136,154.2380035232,150.5745225151,152.6863532451,259948
2024-09-18 00:00:00+00:00,151.7642863066,154.1636432862,151.4073571692,152.4484004868,214216
2024-09-19 00:00:00+00:00,155.5616157412,157.4503657603,153.6976524679,153.6976524679,412361
2024-09-20 00:00:00+00:00,154.5800606132,154.9766485437,153.1622587617,154.9766485437,663306
2024-09-23 00:00:00+00:00,154.6296341046,155.5665730904,153.4200409165,154.8378427681,315802
2024-09-24 00:00:00+00:00,155.2939188882,155.74008031,154.6990369924,154.8477574663,246154
2024-09-25 00:00:00+00:00,155.7995684995,156.5233414727,154.5404018202,155.9582036717,284138
2024-09-26 00:00:00+00:00,157.0289910841,157.703190566,156.3547916023,156.5927443606,371630
2024-09-27 00:00:00+00:00,158.5261105218,160.1719504334,156.910014705,157.326432032,354288
2024-09-30 00:00:00+00:00,158.8235514697,159.0515895297,157.5693421394,157.931228626,289783
2024-10-01 00:00:00+00:00,158.6054281079,159.1705659089,157.6932758677,159.1705659089,192217
2024-10-02 00:00:00+00:00,157.3958349198,158.7442338836,156.607616408,158.496366427,186859
2024-10-03 00:00:00+00:00,157.5842141868,159.0912483228,155.2988762373,156.6423178519,366992
2024-10-04 00:00:00+00:00,159.2102247019,160.0926328473,157.9708874191,158.5756840131,350508
2024-10-07 00:00:00+00:00,157.3363467303,158.273781451,156.6621472484,158.0303756086,223348
2024-10-08 00:00:00+00:00,157.3165173337,157.6635317729,155.7599097065,156.9298441015,205920
2024-10-09 00:00:00+00:00,158.3377312548,158.684646547,156.7712089293,156.9992469893,152611
2024-10-10 00:00:00+00:00,157.8618257382,158.0204609104,156.7018060414,156.7018060414,168527
2024-10-11 00:00:00+00:00,160.1719504334,160.5358198596,158.987143991,159.5671538394,194364
2024-10-14 00:00:00+00:00,165.7638402535,166.3289780545,162.0656578016,163.5826066357,469784
2024-10-15 00:00:00+00:00,167.2411302947,168.2078133753,165.0698113751,165.8927313309,397252
2024-10-16 00:00:00+00:00,164.6236499533,167.7566946043,164.5046735742,167.2609596912,329983
2024-10-17 00:00:00+00:00,166.4578691319,166.8842011572,165.0995554699,165.55563159,238180
2024-10-18 00:00:00+00:00,167.1915568034,167.6575476217,166.3438501019,167.6575476217,171511
2024-10-21 00:00:00+00:00,164.9111762029,167.0527510277,164.8814321081,167.0329216311,217915
2024-10-22 00:00:00+00:00,164.3956118933,164.950834996,163.404142067,164.3063796089,228467
2024-10-23 00:00:00+00:00,166.2199163736,166.5474980042,164.7376689833,165.0896407717,318113
2024-10-24 00:00:00+00:00,165.5754609865,167.3450456191,165.1728307752,167.3351041324,547349
2024-10-25 00:00:00+00:00,167.9216518477,168.8511808541,163.6468125668,167.9315933344,518947
2024-10-28 00:00:00+00:00,168.110540095,170.4070235227,167.7725295472,168.905859031,349962
2024-10-29 00:00:00+00:00,167.712880627,168.4982580763,166.6590830368,168.0409496881,338097
2024-10-30 00:00:00+00:00,168.0409496881,169.204103632,167.1362743984,167.3649285925,290340
2024-10-31 00:00:00+00:00,166.9275031777,169.2836355256,166.8777957442,168.1005986083,329868
2024-11-01 00:00:00+00:00,168.4187261827,169.9894810813,166.6392000634,167.116391425,316280
2024-11-04 00:00:00+00:00,167.2754552122,169.5719386399,167.1959233186,168.6374388901,191750
2024-11-05 00:00:00+00:00,169.3134599857,169.3631674192,166.7584979038,166.7584979038,206206
2024-11-06 00:00:00+00:00,172.1467836952,174.1251395484,171.1327520518,174.1251395484,264104
2024-11-07 00:00:00+00:00,173.6877141336,174.4333256361,172.5245601898,173.1806983119,412332
2024-11-08 00:00:00+00:00,174.7315702371,176.7944287274,173.4640306829,173.6777726469,309183
2024-11-11 00:00:00+00:00,175.1192882184,176.988287718,174.8707510509,175.2882934923,189082
2024-11-12 00:00:00+00:00,174.6719213169,176.2029102687,173.9263098144,175.6163625534,179781
2024-11-13 00:00:00+00:00,174.4730915829,175.3578838992,174.0207539381,174.4730915829,168391
2024-11-14 00:00:00+00:00,173.0812834449,174.7613946972,172.8874244543,174.1251395484,198168
2024-11-15 00:00:00+00:00,165.5158120663,172.7432728972,165.1976844919,171.9578954479,620523
2024-11-18 00:00:00+00:00,165.7146418003,166.8380297974,163.3684509392,165.4163971993,384407
2024-11-19 00:00:00+00:00,165.923413021,166.6889074969,165.2225382087,165.4462216594,287603
2024-11-20 00:00:00+00:00,167.7427050871,167.9513768929,164.6807271835,166.022827888,221802
2024-11-21 00:00:00+00:00,168.8859760576,169.2339280921,166.7584979038,167.7029391403,205056
2024-11-22 00:00:00+00:00,170.5064383897,171.0631616449,169.1842206586,169.1842206586,241648
2024-11-25 00:00:00+00:00,171.490645573,173.0040380933,170.7350925838,171.0432786715,270111
2024-11-26 00:00:00+00:00,171.0333371848,171.8485390942,170.1584863552,171.8485390942,140337
2024-11-27 00:00:00+00:00,170.7251510971,172.8625707375,170.5163798764,171.6596508469,167190
2024-11-29 00:00:00+00:00,171.9479539612,172.4748527563,171.0830446183,171.5801189533,117313
2024-12-02 00:00:00+00:00,171.7491242272,172.0970762617,169.8353880374,171.9678369346,170859
2024-12-03 00:00:00+00:00,171.391230706,172.4350868095,170.0888959483,172.4350868095,160082
2024-12-04 00:00:00+00:00,171.5801189533,171.8783635543,170.0242762847,170.8842148843,173405
2024-12-05 00:00:00+00:00,170.098837435,171.4309966528,169.5321726931,171.0035127247,244993
2024-12-06 00:00:00+00:00,170.1485448685,171.6397678735,169.8503002675,170.59591177,209219
2024-12-09 00:00:00+00:00,169.7906513473,172.4499990395,169.2339280921,170.5561458232,301698
2024-12-10 00:00:00+00:00,169.9099491877,170.3672575759,167.2058648053,169.7210609404,287044
2024-12-11 00:00:00+00:00,171.3017573257,173.0812834449,170.7400633271,170.8742733976,418597
2024-12-12 00:00:00+00:00,170.6356777168,171.59006044,169.7807098606,170.6655021769,178316
2024-12-13 00:00:00+00:00,169.204103632,169.999422568,168.8263271374,169.9099491877,153215
2024-12-16 00:00:00+00:00,166.6491415501,169.9277444489,166.6093756033,169.1444547118,236090
2024-12-17 00:00:00+00:00,162.1357065884,165.9283837644,161.8871694209,165.923413021,511945
2024-12-18 00:00:00+00:00,157.2842610788,163.4579243195,156.9860164778,162.7321957904,468597
2024-12-19 00:00:00+00:00,157.940399201,160.62460061,157.3041440522,157.5825056798,404719
2024-12-20 00:00:00+00:00,157.2544366187,158.8450744907,156.5490881374,157.7912769005,730243
2024-12-23 00:00:00+00:00,157.5924471665,157.9702236611,156.0415752413,156.250346462,194939
2024-12-24 00:00:00+00:00,158.4175905626,158.4871809695,156.9959579645,157.8509258207,100464
2024-12-26 00:00:00+00:00,157.9205162276,158.6959521902,157.4930322995,157.4930322995,164622
2024-12-27 00:00:00+00:00,157.2246121586,158.6462447567,156.6877718768,156.8965430975,145043
2024-12-30 00:00:00+00:00,155.8129210473,156.5684740364,154.0930438482,156.0813411881,221703
2024-12-31 00:00:00+00:00,156.1807560551,157.3240270256,155.2661392788,156.3597028157,317053
2025-01-02 00:00:00+00:00,153.2579589654,157.1848462118,152.5521134097,156.7275378236,239385
2025-01-03 00:00:00+00:00,154.5901181832,154.8038601472,151.9755071811,153.138661125,250660
2025-01-06 00:00:00+00:00,152.0252146146,153.735150327,150.553874583,153.0988951782,369029
2025-01-07 00:00:00+00:00,152.5322304363,155.1468414384,151.7070870402,155.0076606246,361162
2025-01-08 00:00:00+00:00,153.2480174787,153.3573738324,151.2000712185,151.9953901545,228637
2025-01-10 00:00:00+00:00,152.5521134097,153.3971397792,151.6872040668,151.8263848806,350837
2025-01-13 00:00:00+00:00,152.9895388245,153.7947992472,152.0351561013,152.0351561013,349285
2025-01-14 00:00:00+00:00,153.7053258669,154.5356388361,152.5819378698,153.9041556009,196911
2025-01-15 00:00:00+00:00,154.6497671034,156.0018092945,153.2679004521,155.2064903586,206137
2025-01-16 00:00:00+00:00,155.4947934729,156.2453757187,154.4012299359,154.9778361645,346317
2025-01-17 00:00:00+00:00,155.1766658985,157.0257824246,154.7690649438,156.051516728,231872
2025-01-21 00:00:00+00:00,158.8947819242,159.3222658523,155.8029795606,155.8029795606,270874
2025-01-22 00:00:00+00:00,158.139228935,159.8093987006,157.4135004059,158.4076490759,279989
2025-01-23 00:00:00+00:00,158.6860107035,158.8699282075,156.8020989739,157.5327982463,149812
2025-01-24 00:00:00+00:00,157.3737344591,159.531037073,156.3000538955,158.7158351636,329584
2025-01-27 00:00:00+00:00,157.5327982463,157.9901066345,155.7284184103,157.3240270256,317046
2025-01-28 00:00:00+00:00,157.4930322995,159.4117392326,156.64800593,156.64800593,204250
2025-01-29 00:00:00+00:00,156.1906975418,157.8906917675,155.6985939502,157.8509258207,265785
2025-01-30 00:00:00+00:00,157.2047291852,157.7465402104,155.6637987468,156.8965430975,274219
2025-01-31 00:00:00+00:00,156.2304634886,158.4573565094,155.8427455074,156.9760749911,834143
2025-02-03 00:00:00+00:00,155.0673095448,155.8296227449,153.238075992,153.6755014068,364565
2025-02-04 00:00:00+00:00,156.7772452571,157.5327982463,155.1766658985,155.1766658985,302366
2025-02-05 00:00:00+00:00,157.840984334,159.1769300074,157.3026181671,157.8011053587,262636
2025-02-06 00:00:00+00:00,155.9766422376,159.3563853964,154.8999099039,159.3563853964,446565
2025-02-07 00:00:00+00:00,142.7467921737,157.4222550931,141.610241377,157.1431022659,1221538
2025-02-10 00:00:00+00:00,142.846489612,144.1674806697,140.4687057083,143.8235245075,621928
2025-02-11 00:00:00+00:00,141.8594849728,142.6371249916,139.8356269751,141.8395454851,377346
2025-02-12 00:00:00+00:00,141.2712700867,143.0558542325,139.5066254286,140.5434787871,423520
2025-02-13 00:00:00+00:00,142.3380326767,143.3449768036,141.0319962348,142.318093189,665887
2025-02-14 00:00:00+00:00,144.3519209305,144.8703476098,142.2881839575,143.2552491091,512842
2025-02-18 00:00:00+00:00,146.4555368789,146.8493417602,143.4596288577,144.3519209305,489600
2025-02-19 00:00:00+00:00,146.5951132925,147.0437517649,145.1694399247,145.6978363477,331002
2025-02-20 00:00:00+00:00,146.2362025146,146.9689786862,145.4785019835,146.5253250857,283106
2025-02-21 00:00:00+00:00,145.8972312244,146.9440543266,144.7606804276,146.5851435487,451851
2025-02-24 00:00:00+00:00,145.1694399247,146.8443568883,143.9232219458,145.7377153231,353284
2025-02-25 00:00:00+00:00,147.2630861292,147.8812102468,145.2791071068,145.4386230081,336735
2025-02-26 00:00:00+00:00,146.1963235393,148.7286384724,146.1763840516,146.2062932831,735632
2025-02-27 00:00:00+00:00,145.1893794124,146.7346897062,144.9201963289,145.7875640422,262813
2025-02-28 00:00:00+00:00,146.3059907214,146.5053855981,144.1924050292,145.7177758354,348660
2025-03-03 00:00:00+00:00,146.1464748201,148.3896671821,145.2442130034,146.5253250857,394119
2025-03-04 00:00:00+00:00,145.4984414711,147.5023599812,144.7008619646,145.0996517179,490119
2025-03-05 00:00:00+00:00,147.9908774289,148.399636926,145.6081086533,145.6081086533,445078
2025-03-06 00:00:00+00:00,150.6926780071,151.0416190412,146.6150527802,147.1135399718,471738
2025-03-07 00:00:00+00:00,152.3177462516,152.8959913938,148.7236536005,150.0546144019,480214
2025-03-10 00:00:00+00:00,150.1144328649,153.534054999,149.7854313185,151.6098944396,390883
2025-03-11 00:00:00+00:00,147.4425415182,150.1044631211,146.8200307134,149.8851287568,304021
2025-03-12 00:00:00+00:00,145.5881691656,147.7914825523,145.1195912055,147.7914825523,299729
2025-03-13 00:00:00+00:00,144.3220116991,146.7546291938,143.3250373159,145.9670194312,238382
2025-03-14 00:00:00+00:00,146.216263027,146.4455671351,144.1023782425,144.7905896591,223585
2025-03-17 00:00:00+00:00,147.392692799,147.5522087003,145.4186835205,146.0667168695,225203
2025-03-18 00:00:00+00:00,145.857352249,147.0836307403,145.3389255698,146.9440543266,219932
2025-03-19 00:00:00+00:00,146.5352948296,147.0138425335,145.0298635111,145.8972312244,279662
2025-03-20 00:00:00+00:00,144.7606804276,146.9739635581,143.2901432125,145.6878666039,332777
2025-03-21 00:00:00+00:00,144.381830162,145.0198937672,141.9292731796,143.5643111679,601908
2025-03-24 00:00:00+00:00,147.5422389565,147.7316640893,144.4715578565,145.3090163383,463787
2025-03-25 00:00:00+00:00,146.7645989377,148.7784871916,145.4834868554,148.0407261481,325226
2025-03-26 00:00:00+00:00,148.1105143549,148.2500907685,145.857352249,146.6050830364,630399
2025-03-27 00:00:00+00:00,148.8981241175,149.4364902844,146.5851435487,147.8313615276,312676
2025-03-28 00:00:00+00:00,146.4854461104,149.5461574665,145.3140012102,148.8383056545,239805
2025-03-31 00:00:00+00:00,147.9310589659,148.6389107779,145.6529725005,146.1365050763,372528
2025-04-01 00:00:00+00:00,148.6488805218,149.576066698,146.9340845828,148.4295461575,239988
2025-04-02 00:00:00+00:00,150.0745538896,150.6727385195,147.5522087003,147.5522087003,247555
2025-04-03 00:00:00+00:00,148.220181537,149.5960061857,146.0168681503,146.3159604653,352876
2025-04-04 00:00:00+00:00,139.7558690244,147.512329725,139.6162926108,144.7806199153,531626
2025-04-07 00:00:00+00:00,134.2426006858,141.6899993276,130.45409803,135.9274873933,629909
2025-04-08 00:00:00+00:00,133.2555960465,138.8860088751,130.8827970147,136.9643407517,473826
2025-04-09 00:00:00+00:00,143.3150675721,143.9830404088,130.92267599,132.7770483426,491857
2025-04-10 00:00:00+00:00,140.3341141666,142.9362173065,137.1537658845,139.5764136354,308997
2025-04-11 00:00:00+00:00,143.67397835,144.2721629799,139.3138105829,140.4437813488,203037
2025-04-14 00:00:00+00:00,145.3488953137,145.9520648154,143.3549465474,145.3588650575,249303
2025-04-15 00:00:00+00:00,143.5044927049,146.096626101,143.3350070598,145.6579573724,250675
2025-04-16 00:00:00+00:00,144.561285551,145.3788045451,142.143622672,143.6241296309,307681
2025-04-17 00:00:00+00:00,143.3948255228,145.3239709541,140.2842654475,144.9600753042,390605
2025-04-21 00:00:00+00:00,142.1486075439,143.614159887,140.6730854569,142.8664290997,291626
2025-04-22 00:00:00+00:00,145.5781994218,146.3799662207,143.1555516708,144.0627983594,217767
2025-04-23 00:00:00+00:00,147.6020574195,148.868214886,146.7745686815,147.4226020305,536977
2025-04-24 00:00:00+00:00,151.0017400659,151.5401062328,145.0199934647,147.4824204935,424550
2025-04-25 00:00:00+00:00,148.6090015464,152.5369809184,147.1235097156,150.3935856922,220485
2025-04-28 00:00:00+00:00,149.2470651516,150.5730410812,147.8313615276,149.3467625899,235226
2025-04-29 00:00:00+00:00,149.8452497815,151.5201667451,148.5591528273,149.3068836146,359943
2025-04-30 00:00:00+00:00,149.4963087474,149.5361877227,146.7645989377,148.6189712903,556176
2025-05-01 00:00:00+00:00,148.28,150.53,146.96,148.45,445325
2025-05-02 00:00:00+00:00,152.0,153.0,147.785,152.99,431607
2025-05-05 00:00:00+00:00,151.48,153.215,150.878,151.43,267601
2025-05-06 00:00:00+00:00,150.92,152.04,149.415,150.25,311959
2025-05-07 00:00:00+00:00,151.39,153.145,150.62,151.88,318398
2025-05-08 00:00:00+00:00,153.36,154.575,151.24,151.79,302474
2025-05-09 00:00:00+00:00,153.32,154.3,152.94,153.91,231636
